5.432000000000000000e+03
6.205000000000000000e+03
6.720000000000000000e+03
6.998000000000000000e+03
7.361000000000000000e+03
7.667000000000000000e+03
7.842000000000000000e+03
8.041000000000000000e+03
8.236000000000000000e+03
8.324000000000000000e+03
8.414000000000000000e+03
8.561000000000000000e+03
8.649000000000000000e+03
8.696000000000000000e+03
8.774000000000000000e+03
8.853000000000000000e+03
8.905000000000000000e+03
8.936000000000000000e+03
9.014000000000000000e+03
9.292000000000000000e+03
9.695000000000000000e+03
9.809000000000000000e+03
9.337000000000000000e+03
8.784000000000000000e+03
8.810000000000000000e+03
9.092000000000000000e+03
9.173000000000000000e+03
9.235000000000000000e+03
9.318000000000000000e+03
9.299000000000000000e+03
9.289000000000000000e+03
9.375000000000000000e+03
9.443000000000000000e+03
9.391000000000000000e+03
9.363000000000000000e+03
9.415000000000000000e+03
9.382000000000000000e+03
9.320000000000000000e+03
9.382000000000000000e+03
9.448000000000000000e+03
9.365000000000000000e+03
9.265000000000000000e+03
9.299000000000000000e+03
9.344000000000000000e+03
9.320000000000000000e+03
9.287000000000000000e+03
9.284000000000000000e+03
9.308000000000000000e+03
9.292000000000000000e+03
9.237000000000000000e+03
9.244000000000000000e+03
9.246000000000000000e+03
9.144000000000000000e+03
9.042000000000000000e+03
9.014000000000000000e+03
8.993000000000000000e+03
8.857000000000000000e+03
8.658000000000000000e+03
8.580000000000000000e+03
8.561000000000000000e+03
8.478000000000000000e+03
8.402000000000000000e+03
8.402000000000000000e+03
8.381000000000000000e+03
8.279000000000000000e+03
8.217000000000000000e+03
8.224000000000000000e+03
8.186000000000000000e+03
8.115000000000000000e+03
8.070000000000000000e+03
8.037000000000000000e+03
8.008000000000000000e+03
7.937000000000000000e+03
7.852000000000000000e+03
7.840000000000000000e+03
7.799000000000000000e+03
7.690000000000000000e+03
7.633000000000000000e+03
7.621000000000000000e+03
7.569000000000000000e+03
7.484000000000000000e+03
7.429000000000000000e+03
7.425000000000000000e+03
7.372000000000000000e+03
7.223000000000000000e+03
7.142000000000000000e+03
7.145000000000000000e+03
7.088000000000000000e+03
6.986000000000000000e+03
6.929000000000000000e+03
6.884000000000000000e+03
6.798000000000000000e+03
6.746000000000000000e+03
6.711000000000000000e+03
6.616000000000000000e+03
6.533000000000000000e+03
6.528000000000000000e+03
6.518000000000000000e+03
6.409000000000000000e+03
6.288000000000000000e+03
6.253000000000000000e+03
6.348000000000000000e+03
6.635000000000000000e+03
6.832000000000000000e+03
6.433000000000000000e+03
5.674000000000000000e+03
5.394000000000000000e+03
5.624000000000000000e+03
5.719000000000000000e+03
5.655000000000000000e+03
5.679000000000000000e+03
5.636000000000000000e+03
5.522000000000000000e+03
5.503000000000000000e+03
5.475000000000000000e+03
5.399000000000000000e+03
5.363000000000000000e+03
5.339000000000000000e+03
5.282000000000000000e+03
5.199000000000000000e+03
5.166000000000000000e+03
5.171000000000000000e+03
5.045000000000000000e+03
4.896000000000000000e+03
4.884000000000000000e+03
4.882000000000000000e+03
4.808000000000000000e+03
4.765000000000000000e+03
4.787000000000000000e+03
4.761000000000000000e+03
4.682000000000000000e+03
4.654000000000000000e+03
4.625000000000000000e+03
4.576000000000000000e+03
4.538000000000000000e+03
4.443000000000000000e+03
4.298000000000000000e+03
4.179000000000000000e+03
4.082000000000000000e+03
3.990000000000000000e+03
3.911000000000000000e+03
3.843000000000000000e+03
3.764000000000000000e+03
3.705000000000000000e+03
3.676000000000000000e+03
3.634000000000000000e+03
3.593000000000000000e+03
3.553000000000000000e+03
3.503000000000000000e+03
3.477000000000000000e+03
3.427000000000000000e+03
3.382000000000000000e+03
3.399000000000000000e+03
3.332000000000000000e+03
3.221000000000000000e+03
3.204000000000000000e+03
3.190000000000000000e+03
3.150000000000000000e+03
3.119000000000000000e+03
3.091000000000000000e+03
3.048000000000000000e+03
2.977000000000000000e+03
2.951000000000000000e+03
2.943000000000000000e+03
2.901000000000000000e+03
2.865000000000000000e+03
2.813000000000000000e+03
2.770000000000000000e+03
2.747000000000000000e+03
2.699000000000000000e+03
2.666000000000000000e+03
2.647000000000000000e+03
2.626000000000000000e+03
2.576000000000000000e+03
2.507000000000000000e+03
2.497000000000000000e+03
2.464000000000000000e+03
2.412000000000000000e+03
2.391000000000000000e+03
2.348000000000000000e+03
2.353000000000000000e+03
2.322000000000000000e+03
2.222000000000000000e+03
2.220000000000000000e+03
2.189000000000000000e+03
2.120000000000000000e+03
2.265000000000000000e+03
2.557000000000000000e+03
2.685000000000000000e+03
2.393000000000000000e+03
1.786000000000000000e+03
1.487000000000000000e+03
1.662000000000000000e+03
1.847000000000000000e+03
1.840000000000000000e+03
1.788000000000000000e+03
1.798000000000000000e+03
1.800000000000000000e+03
1.762000000000000000e+03
1.755000000000000000e+03
1.738000000000000000e+03
1.689000000000000000e+03
1.655000000000000000e+03
1.665000000000000000e+03
1.655000000000000000e+03
1.584000000000000000e+03
1.565000000000000000e+03
1.563000000000000000e+03
1.506000000000000000e+03
1.499000000000000000e+03
1.534000000000000000e+03
1.539000000000000000e+03
1.511000000000000000e+03
1.477000000000000000e+03
1.503000000000000000e+03
1.506000000000000000e+03
1.470000000000000000e+03
1.513000000000000000e+03
1.511000000000000000e+03
1.449000000000000000e+03
1.399000000000000000e+03
1.326000000000000000e+03
1.262000000000000000e+03
1.174000000000000000e+03
1.093000000000000000e+03
1.074000000000000000e+03
1.027000000000000000e+03
9.560000000000000000e+02
8.960000000000000000e+02
8.800000000000000000e+02
8.990000000000000000e+02
8.540000000000000000e+02
8.320000000000000000e+02
8.460000000000000000e+02
8.160000000000000000e+02
8.080000000000000000e+02
7.850000000000000000e+02
7.730000000000000000e+02
7.940000000000000000e+02
7.610000000000000000e+02
7.700000000000000000e+02
7.920000000000000000e+02
7.350000000000000000e+02
7.210000000000000000e+02
7.400000000000000000e+02
7.250000000000000000e+02
7.020000000000000000e+02
6.830000000000000000e+02
6.830000000000000000e+02
6.680000000000000000e+02
6.490000000000000000e+02
6.520000000000000000e+02
6.350000000000000000e+02
5.930000000000000000e+02
5.470000000000000000e+02
5.310000000000000000e+02
5.470000000000000000e+02
5.260000000000000000e+02
5.020000000000000000e+02
5.260000000000000000e+02
5.450000000000000000e+02
5.310000000000000000e+02
5.020000000000000000e+02
4.830000000000000000e+02
4.450000000000000000e+02
4.190000000000000000e+02
4.380000000000000000e+02
4.220000000000000000e+02
3.960000000000000000e+02
4.100000000000000000e+02
3.910000000000000000e+02
3.810000000000000000e+02
4.030000000000000000e+02
3.720000000000000000e+02
3.430000000000000000e+02
4.190000000000000000e+02
6.520000000000000000e+02
9.370000000000000000e+02
8.960000000000000000e+02
3.770000000000000000e+02
-9.000000000000000000e+01
-7.000000000000000000e+00
2.250000000000000000e+02
2.320000000000000000e+02
2.490000000000000000e+02
2.940000000000000000e+02
2.600000000000000000e+02
2.600000000000000000e+02
2.820000000000000000e+02
2.700000000000000000e+02
2.650000000000000000e+02
2.600000000000000000e+02
2.630000000000000000e+02
2.700000000000000000e+02
2.580000000000000000e+02
2.490000000000000000e+02
2.390000000000000000e+02
2.110000000000000000e+02
1.800000000000000000e+02
1.770000000000000000e+02
1.920000000000000000e+02
1.920000000000000000e+02
1.940000000000000000e+02
2.010000000000000000e+02
2.110000000000000000e+02
2.390000000000000000e+02
2.630000000000000000e+02
2.650000000000000000e+02
2.600000000000000000e+02
2.270000000000000000e+02
1.870000000000000000e+02
1.510000000000000000e+02
9.900000000000000000e+01
4.200000000000000000e+01
-7.000000000000000000e+00
-4.200000000000000000e+01
-6.100000000000000000e+01
-7.500000000000000000e+01
-8.700000000000000000e+01
-1.160000000000000000e+02
-1.470000000000000000e+02
-1.470000000000000000e+02
-1.370000000000000000e+02
-1.300000000000000000e+02
-1.160000000000000000e+02
-1.040000000000000000e+02
-1.040000000000000000e+02
-1.180000000000000000e+02
-1.320000000000000000e+02
-1.300000000000000000e+02
-1.180000000000000000e+02
-1.040000000000000000e+02
-1.020000000000000000e+02
-1.110000000000000000e+02
-1.130000000000000000e+02
-1.040000000000000000e+02
-9.200000000000000000e+01
-9.000000000000000000e+01
-9.000000000000000000e+01
-9.200000000000000000e+01
-9.900000000000000000e+01
-9.000000000000000000e+01
-7.800000000000000000e+01
-8.300000000000000000e+01
-8.500000000000000000e+01
-8.500000000000000000e+01
-8.300000000000000000e+01
-7.500000000000000000e+01
-7.800000000000000000e+01
-8.500000000000000000e+01
-7.100000000000000000e+01
-5.400000000000000000e+01
-5.900000000000000000e+01
-5.600000000000000000e+01
-4.000000000000000000e+01
-5.400000000000000000e+01
-8.500000000000000000e+01
-8.500000000000000000e+01
-7.100000000000000000e+01
-7.500000000000000000e+01
-9.700000000000000000e+01
-9.400000000000000000e+01
-8.300000000000000000e+01
-1.090000000000000000e+02
-1.370000000000000000e+02
-1.350000000000000000e+02
-9.900000000000000000e+01
4.900000000000000000e+01
3.270000000000000000e+02
4.570000000000000000e+02
1.320000000000000000e+02
-4.030000000000000000e+02
-5.170000000000000000e+02
-2.600000000000000000e+02
-1.820000000000000000e+02
-2.270000000000000000e+02
-1.800000000000000000e+02
-1.510000000000000000e+02
-1.580000000000000000e+02
-1.470000000000000000e+02
-1.420000000000000000e+02
-1.470000000000000000e+02
-1.390000000000000000e+02
-1.350000000000000000e+02
-1.510000000000000000e+02
-1.770000000000000000e+02
-2.010000000000000000e+02
-2.220000000000000000e+02
-2.300000000000000000e+02
-2.130000000000000000e+02
-1.850000000000000000e+02
-1.750000000000000000e+02
-1.870000000000000000e+02
-1.800000000000000000e+02
-1.490000000000000000e+02
-1.280000000000000000e+02
-1.110000000000000000e+02
-8.300000000000000000e+01
-6.600000000000000000e+01
-7.500000000000000000e+01
-8.500000000000000000e+01
-9.200000000000000000e+01
-1.280000000000000000e+02
-1.800000000000000000e+02
-2.220000000000000000e+02
-2.650000000000000000e+02
-3.030000000000000000e+02
-3.240000000000000000e+02
-3.340000000000000000e+02
-3.320000000000000000e+02
-3.360000000000000000e+02
-3.430000000000000000e+02
-3.290000000000000000e+02
-3.130000000000000000e+02
-3.100000000000000000e+02
-3.080000000000000000e+02
-2.960000000000000000e+02
-2.840000000000000000e+02
-2.870000000000000000e+02
-2.870000000000000000e+02
-2.700000000000000000e+02
-2.530000000000000000e+02
-2.560000000000000000e+02
-2.720000000000000000e+02
-2.870000000000000000e+02
-2.870000000000000000e+02
-2.770000000000000000e+02
-2.720000000000000000e+02
-2.700000000000000000e+02
-2.770000000000000000e+02
-2.720000000000000000e+02
-2.630000000000000000e+02
-2.600000000000000000e+02
-2.580000000000000000e+02
-2.650000000000000000e+02
-2.750000000000000000e+02
-2.680000000000000000e+02
-2.530000000000000000e+02
-2.410000000000000000e+02
-2.300000000000000000e+02
-2.180000000000000000e+02
-2.270000000000000000e+02
-2.650000000000000000e+02
-2.870000000000000000e+02
-2.770000000000000000e+02
-2.870000000000000000e+02
-3.100000000000000000e+02
-3.150000000000000000e+02
-3.100000000000000000e+02
-3.100000000000000000e+02
-3.010000000000000000e+02
-3.060000000000000000e+02
-3.580000000000000000e+02
-3.860000000000000000e+02
-2.870000000000000000e+02
-4.700000000000000000e+01
2.130000000000000000e+02
1.660000000000000000e+02
-3.430000000000000000e+02
-7.660000000000000000e+02
-6.310000000000000000e+02
-3.860000000000000000e+02
-3.840000000000000000e+02
-3.650000000000000000e+02
-2.940000000000000000e+02
-3.080000000000000000e+02
-3.320000000000000000e+02
-3.170000000000000000e+02
-3.220000000000000000e+02
-3.360000000000000000e+02
-3.290000000000000000e+02
-3.200000000000000000e+02
-3.290000000000000000e+02
-3.240000000000000000e+02
-2.940000000000000000e+02
-2.890000000000000000e+02
-2.940000000000000000e+02
-2.700000000000000000e+02
-2.490000000000000000e+02
-2.220000000000000000e+02
-1.820000000000000000e+02
-1.750000000000000000e+02
-1.750000000000000000e+02
-1.300000000000000000e+02
-8.000000000000000000e+01
-8.300000000000000000e+01
-9.700000000000000000e+01
-8.500000000000000000e+01
-9.900000000000000000e+01
-1.700000000000000000e+02
-2.300000000000000000e+02
-2.560000000000000000e+02
-2.960000000000000000e+02
-3.460000000000000000e+02
-3.910000000000000000e+02
-4.170000000000000000e+02
-4.150000000000000000e+02
-4.050000000000000000e+02
-4.000000000000000000e+02
-3.930000000000000000e+02
-3.960000000000000000e+02
-3.930000000000000000e+02
-3.670000000000000000e+02
-3.620000000000000000e+02
-3.700000000000000000e+02
-3.510000000000000000e+02
-3.340000000000000000e+02
-3.340000000000000000e+02
-3.290000000000000000e+02
-3.200000000000000000e+02
-3.060000000000000000e+02
-2.960000000000000000e+02
-3.010000000000000000e+02
-3.030000000000000000e+02
-2.910000000000000000e+02
-2.840000000000000000e+02
-2.770000000000000000e+02
-2.960000000000000000e+02
-3.360000000000000000e+02
-3.620000000000000000e+02
-3.740000000000000000e+02
-3.650000000000000000e+02
-3.240000000000000000e+02
-3.220000000000000000e+02
-3.550000000000000000e+02
-3.530000000000000000e+02
-3.410000000000000000e+02
-3.770000000000000000e+02
-3.980000000000000000e+02
-3.840000000000000000e+02
-3.930000000000000000e+02
-4.000000000000000000e+02
-3.810000000000000000e+02
-3.700000000000000000e+02
-3.620000000000000000e+02
-3.580000000000000000e+02
-3.670000000000000000e+02
-3.510000000000000000e+02
-2.040000000000000000e+02
9.900000000000000000e+01
3.220000000000000000e+02
6.400000000000000000e+01
-5.520000000000000000e+02
-7.800000000000000000e+02
-5.100000000000000000e+02
-3.600000000000000000e+02
-3.740000000000000000e+02
-3.150000000000000000e+02
-2.960000000000000000e+02
-3.320000000000000000e+02
-3.290000000000000000e+02
-3.220000000000000000e+02
-3.390000000000000000e+02
-3.290000000000000000e+02
-3.200000000000000000e+02
-3.460000000000000000e+02
-3.550000000000000000e+02
-3.130000000000000000e+02
-2.700000000000000000e+02
-2.750000000000000000e+02
-2.820000000000000000e+02
-2.560000000000000000e+02
-2.370000000000000000e+02
-2.180000000000000000e+02
-1.750000000000000000e+02
-1.300000000000000000e+02
-1.130000000000000000e+02
-1.160000000000000000e+02
-1.040000000000000000e+02
-7.500000000000000000e+01
-6.600000000000000000e+01
-9.000000000000000000e+01
-1.160000000000000000e+02
-1.560000000000000000e+02
-2.200000000000000000e+02
-2.630000000000000000e+02
-2.960000000000000000e+02
-3.460000000000000000e+02
-3.930000000000000000e+02
-4.220000000000000000e+02
-4.270000000000000000e+02
-4.100000000000000000e+02
-4.080000000000000000e+02
-4.240000000000000000e+02
-4.480000000000000000e+02
-4.550000000000000000e+02
-4.410000000000000000e+02
-4.290000000000000000e+02
-4.120000000000000000e+02
-3.860000000000000000e+02
-3.890000000000000000e+02
-4.150000000000000000e+02
-4.000000000000000000e+02
-3.700000000000000000e+02
-3.890000000000000000e+02
-4.100000000000000000e+02
-3.840000000000000000e+02
-3.810000000000000000e+02
-3.910000000000000000e+02
-3.670000000000000000e+02
-3.530000000000000000e+02
-3.600000000000000000e+02
-3.530000000000000000e+02
-3.460000000000000000e+02
-3.480000000000000000e+02
-3.320000000000000000e+02
-3.100000000000000000e+02
-3.130000000000000000e+02
-3.290000000000000000e+02
-3.510000000000000000e+02
-3.670000000000000000e+02
-3.580000000000000000e+02
-3.510000000000000000e+02
-3.580000000000000000e+02
-3.550000000000000000e+02
-3.580000000000000000e+02
-3.740000000000000000e+02
-3.860000000000000000e+02
-3.840000000000000000e+02
-3.720000000000000000e+02
-3.100000000000000000e+02
-9.900000000000000000e+01
2.300000000000000000e+02
2.870000000000000000e+02
-2.150000000000000000e+02
-7.560000000000000000e+02
-7.060000000000000000e+02
-4.240000000000000000e+02
-3.740000000000000000e+02
-3.770000000000000000e+02
-3.240000000000000000e+02
-3.220000000000000000e+02
-3.460000000000000000e+02
-3.530000000000000000e+02
-3.410000000000000000e+02
-3.320000000000000000e+02
-3.290000000000000000e+02
-3.270000000000000000e+02
-3.100000000000000000e+02
-2.910000000000000000e+02
-2.820000000000000000e+02
-2.790000000000000000e+02
-2.700000000000000000e+02
-2.510000000000000000e+02
-2.340000000000000000e+02
-2.200000000000000000e+02
-1.870000000000000000e+02
-1.580000000000000000e+02
-1.490000000000000000e+02
-1.560000000000000000e+02
-1.730000000000000000e+02
-1.730000000000000000e+02
-1.540000000000000000e+02
-1.540000000000000000e+02
-1.770000000000000000e+02
-1.990000000000000000e+02
-2.390000000000000000e+02
-3.130000000000000000e+02
-3.670000000000000000e+02
-3.960000000000000000e+02
-4.290000000000000000e+02
-4.450000000000000000e+02
-4.450000000000000000e+02
-4.600000000000000000e+02
-4.790000000000000000e+02
-4.860000000000000000e+02
-4.670000000000000000e+02
-4.480000000000000000e+02
-4.530000000000000000e+02
-4.530000000000000000e+02
-4.240000000000000000e+02
-4.000000000000000000e+02
-3.980000000000000000e+02
-3.860000000000000000e+02
-3.770000000000000000e+02
-3.770000000000000000e+02
-3.670000000000000000e+02
-3.460000000000000000e+02
-3.360000000000000000e+02
-3.340000000000000000e+02
-3.360000000000000000e+02
-3.510000000000000000e+02
-3.530000000000000000e+02
-3.340000000000000000e+02
-3.270000000000000000e+02
-3.240000000000000000e+02
-3.170000000000000000e+02
-3.150000000000000000e+02
-3.130000000000000000e+02
-2.980000000000000000e+02
-2.750000000000000000e+02
-2.630000000000000000e+02
-2.650000000000000000e+02
-2.890000000000000000e+02
-3.130000000000000000e+02
-3.200000000000000000e+02
-3.170000000000000000e+02
-3.130000000000000000e+02
-3.080000000000000000e+02
-3.170000000000000000e+02
-3.150000000000000000e+02
-2.940000000000000000e+02
-2.870000000000000000e+02
-3.010000000000000000e+02
-2.980000000000000000e+02
-1.630000000000000000e+02
1.470000000000000000e+02
3.890000000000000000e+02
1.440000000000000000e+02
-4.670000000000000000e+02
-7.040000000000000000e+02
-4.450000000000000000e+02
-3.130000000000000000e+02
-3.550000000000000000e+02
-2.960000000000000000e+02
-2.680000000000000000e+02
-3.430000000000000000e+02
-3.740000000000000000e+02
-3.530000000000000000e+02
-3.460000000000000000e+02
-3.360000000000000000e+02
-3.220000000000000000e+02
-3.270000000000000000e+02
-3.240000000000000000e+02
-2.980000000000000000e+02
-2.820000000000000000e+02
-2.770000000000000000e+02
-2.630000000000000000e+02
-2.410000000000000000e+02
-2.180000000000000000e+02
-1.920000000000000000e+02
-1.700000000000000000e+02
-1.440000000000000000e+02
-1.200000000000000000e+02
-1.110000000000000000e+02
-8.500000000000000000e+01
-4.200000000000000000e+01
-2.300000000000000000e+01
-6.800000000000000000e+01
-1.510000000000000000e+02
-1.990000000000000000e+02
-2.370000000000000000e+02
-3.010000000000000000e+02
-3.460000000000000000e+02
-3.770000000000000000e+02
-4.100000000000000000e+02
-4.190000000000000000e+02
-4.220000000000000000e+02
-4.340000000000000000e+02
-4.240000000000000000e+02
-4.030000000000000000e+02
-3.980000000000000000e+02
-4.030000000000000000e+02
-3.860000000000000000e+02
-3.550000000000000000e+02
-3.360000000000000000e+02
-3.290000000000000000e+02
-3.410000000000000000e+02
-3.650000000000000000e+02
-3.410000000000000000e+02
-2.840000000000000000e+02
-2.890000000000000000e+02
-3.200000000000000000e+02
-3.060000000000000000e+02
-2.940000000000000000e+02
-2.910000000000000000e+02
-2.770000000000000000e+02
-2.650000000000000000e+02
-2.650000000000000000e+02
-2.700000000000000000e+02
-2.770000000000000000e+02
-2.840000000000000000e+02
-2.630000000000000000e+02
-2.250000000000000000e+02
-2.390000000000000000e+02
-2.530000000000000000e+02
-2.220000000000000000e+02
-2.460000000000000000e+02
-3.080000000000000000e+02
-2.960000000000000000e+02
-2.600000000000000000e+02
-2.700000000000000000e+02
-3.010000000000000000e+02
-3.240000000000000000e+02
-3.550000000000000000e+02
-3.620000000000000000e+02
-3.320000000000000000e+02
-2.870000000000000000e+02
-2.960000000000000000e+02
-3.270000000000000000e+02
-1.730000000000000000e+02
1.540000000000000000e+02
2.910000000000000000e+02
-4.900000000000000000e+01
-5.710000000000000000e+02
-6.590000000000000000e+02
-4.030000000000000000e+02
-2.980000000000000000e+02
-3.100000000000000000e+02
-2.680000000000000000e+02
-2.510000000000000000e+02
-2.720000000000000000e+02
-2.530000000000000000e+02
-2.300000000000000000e+02
-2.560000000000000000e+02
-2.680000000000000000e+02
-2.600000000000000000e+02
-2.940000000000000000e+02
-2.980000000000000000e+02
-2.580000000000000000e+02
-2.700000000000000000e+02
-2.960000000000000000e+02
-2.770000000000000000e+02
-2.700000000000000000e+02
-2.580000000000000000e+02
-2.110000000000000000e+02
-1.870000000000000000e+02
-1.990000000000000000e+02
-1.990000000000000000e+02
-1.490000000000000000e+02
-1.090000000000000000e+02
-1.130000000000000000e+02
-1.180000000000000000e+02
-1.280000000000000000e+02
-1.580000000000000000e+02
-1.990000000000000000e+02
-2.490000000000000000e+02
-2.910000000000000000e+02
-3.290000000000000000e+02
-3.480000000000000000e+02
-3.480000000000000000e+02
-3.790000000000000000e+02
-3.810000000000000000e+02
-3.390000000000000000e+02
-3.650000000000000000e+02
-3.890000000000000000e+02
-3.430000000000000000e+02
-3.410000000000000000e+02
-3.480000000000000000e+02
-3.060000000000000000e+02
-2.910000000000000000e+02
-3.240000000000000000e+02
-3.290000000000000000e+02
-3.200000000000000000e+02
-3.270000000000000000e+02
-3.080000000000000000e+02
-2.750000000000000000e+02
-2.960000000000000000e+02
-3.360000000000000000e+02
-3.320000000000000000e+02
-3.150000000000000000e+02
-3.130000000000000000e+02
-3.100000000000000000e+02
-3.130000000000000000e+02
-3.200000000000000000e+02
-3.170000000000000000e+02
-3.150000000000000000e+02
-3.130000000000000000e+02
-3.080000000000000000e+02
-2.960000000000000000e+02
-2.820000000000000000e+02
-2.600000000000000000e+02
-2.510000000000000000e+02
-2.580000000000000000e+02
-2.630000000000000000e+02
-2.650000000000000000e+02
-2.720000000000000000e+02
-2.790000000000000000e+02
-2.820000000000000000e+02
-2.700000000000000000e+02
-2.530000000000000000e+02
-2.580000000000000000e+02
-2.750000000000000000e+02
-2.910000000000000000e+02
-3.010000000000000000e+02
-3.100000000000000000e+02
-2.940000000000000000e+02
-1.350000000000000000e+02
1.510000000000000000e+02
2.630000000000000000e+02
-7.500000000000000000e+01
-5.850000000000000000e+02
-6.680000000000000000e+02
-4.150000000000000000e+02
-3.200000000000000000e+02
-3.390000000000000000e+02
-2.870000000000000000e+02
-2.600000000000000000e+02
-2.840000000000000000e+02
-2.750000000000000000e+02
-2.490000000000000000e+02
-2.530000000000000000e+02
-2.510000000000000000e+02
-2.200000000000000000e+02
-2.080000000000000000e+02
-2.220000000000000000e+02
-2.270000000000000000e+02
-2.220000000000000000e+02
-2.320000000000000000e+02
-2.410000000000000000e+02
-2.060000000000000000e+02
-1.750000000000000000e+02
-1.800000000000000000e+02
-1.700000000000000000e+02
-1.490000000000000000e+02
-1.390000000000000000e+02
-1.160000000000000000e+02
-9.200000000000000000e+01
-9.000000000000000000e+01
-1.040000000000000000e+02
-1.110000000000000000e+02
-1.200000000000000000e+02
-1.700000000000000000e+02
-2.580000000000000000e+02
-3.360000000000000000e+02
-3.810000000000000000e+02
-3.960000000000000000e+02
-4.120000000000000000e+02
-4.310000000000000000e+02
-4.270000000000000000e+02
-4.240000000000000000e+02
-4.290000000000000000e+02
-4.220000000000000000e+02
-3.980000000000000000e+02
-3.740000000000000000e+02
-3.670000000000000000e+02
-3.620000000000000000e+02
-3.510000000000000000e+02
-3.460000000000000000e+02
-3.430000000000000000e+02
-3.320000000000000000e+02
-3.100000000000000000e+02
-3.010000000000000000e+02
-3.060000000000000000e+02
-3.030000000000000000e+02
-2.910000000000000000e+02
-2.940000000000000000e+02
-3.130000000000000000e+02
-3.220000000000000000e+02
-3.030000000000000000e+02
-2.910000000000000000e+02
-3.030000000000000000e+02
-2.960000000000000000e+02
-2.750000000000000000e+02
-2.720000000000000000e+02
-2.700000000000000000e+02
-2.560000000000000000e+02
-2.410000000000000000e+02
-2.270000000000000000e+02
-2.200000000000000000e+02
-2.370000000000000000e+02
-2.580000000000000000e+02
-2.490000000000000000e+02
-2.390000000000000000e+02
-2.440000000000000000e+02
-2.270000000000000000e+02
-2.220000000000000000e+02
-2.600000000000000000e+02
-2.790000000000000000e+02
-2.580000000000000000e+02
-2.530000000000000000e+02
-2.410000000000000000e+02
-8.700000000000000000e+01
2.200000000000000000e+02
3.580000000000000000e+02
-3.300000000000000000e+01
-5.930000000000000000e+02
-6.420000000000000000e+02
-3.860000000000000000e+02
-3.430000000000000000e+02
-3.460000000000000000e+02
-2.530000000000000000e+02
-2.370000000000000000e+02
-2.580000000000000000e+02
-2.320000000000000000e+02
-2.130000000000000000e+02
-2.150000000000000000e+02
-2.180000000000000000e+02
-2.180000000000000000e+02
-2.300000000000000000e+02
-2.440000000000000000e+02
-2.390000000000000000e+02
-2.250000000000000000e+02
-2.220000000000000000e+02
-2.300000000000000000e+02
-2.300000000000000000e+02
-2.080000000000000000e+02
-1.800000000000000000e+02
-1.680000000000000000e+02
-1.540000000000000000e+02
-1.280000000000000000e+02
-1.020000000000000000e+02
-9.200000000000000000e+01
-9.900000000000000000e+01
-8.500000000000000000e+01
-8.500000000000000000e+01
-1.300000000000000000e+02
-1.750000000000000000e+02
-2.180000000000000000e+02
-2.840000000000000000e+02
-3.480000000000000000e+02
-3.890000000000000000e+02
-3.980000000000000000e+02
-4.000000000000000000e+02
-4.080000000000000000e+02
-4.050000000000000000e+02
-3.930000000000000000e+02
-3.860000000000000000e+02
-3.770000000000000000e+02
-3.600000000000000000e+02
-3.530000000000000000e+02
-3.580000000000000000e+02
-3.460000000000000000e+02
-3.150000000000000000e+02
-3.100000000000000000e+02
-3.100000000000000000e+02
-2.980000000000000000e+02
-2.910000000000000000e+02
-2.870000000000000000e+02
-2.790000000000000000e+02
-2.700000000000000000e+02
-2.650000000000000000e+02
-2.680000000000000000e+02
-2.680000000000000000e+02
-2.600000000000000000e+02
-2.530000000000000000e+02
-2.510000000000000000e+02
-2.460000000000000000e+02
-2.390000000000000000e+02
-2.390000000000000000e+02
-2.390000000000000000e+02
-2.560000000000000000e+02
-2.720000000000000000e+02
-2.630000000000000000e+02
-2.750000000000000000e+02
-3.060000000000000000e+02
-3.010000000000000000e+02
-2.750000000000000000e+02
-2.700000000000000000e+02
-2.680000000000000000e+02
-2.580000000000000000e+02
-2.580000000000000000e+02
-2.580000000000000000e+02
-2.560000000000000000e+02
-2.820000000000000000e+02
-3.130000000000000000e+02
-2.150000000000000000e+02
7.800000000000000000e+01
3.320000000000000000e+02
1.350000000000000000e+02
-4.690000000000000000e+02
-7.510000000000000000e+02
-5.050000000000000000e+02
-3.320000000000000000e+02
-3.580000000000000000e+02
-3.060000000000000000e+02
-2.390000000000000000e+02
-2.460000000000000000e+02
-2.490000000000000000e+02
-2.340000000000000000e+02
-2.250000000000000000e+02
-2.180000000000000000e+02
-2.060000000000000000e+02
-1.920000000000000000e+02
-1.940000000000000000e+02
-2.060000000000000000e+02
-2.060000000000000000e+02
-2.040000000000000000e+02
-2.110000000000000000e+02
-2.060000000000000000e+02
-1.920000000000000000e+02
-1.820000000000000000e+02
-1.540000000000000000e+02
-1.250000000000000000e+02
-1.130000000000000000e+02
-9.200000000000000000e+01
-6.600000000000000000e+01
-6.100000000000000000e+01
-7.300000000000000000e+01
-8.000000000000000000e+01
-9.000000000000000000e+01
-1.350000000000000000e+02
-1.990000000000000000e+02
-2.560000000000000000e+02
-3.030000000000000000e+02
-3.360000000000000000e+02
-3.580000000000000000e+02
-3.620000000000000000e+02
-3.620000000000000000e+02
-3.740000000000000000e+02
-3.810000000000000000e+02
-3.620000000000000000e+02
-3.410000000000000000e+02
-3.340000000000000000e+02
-3.390000000000000000e+02
-3.390000000000000000e+02
-3.290000000000000000e+02
-3.360000000000000000e+02
-3.390000000000000000e+02
-3.170000000000000000e+02
-3.060000000000000000e+02
-3.320000000000000000e+02
-3.580000000000000000e+02
-3.360000000000000000e+02
-3.100000000000000000e+02
-3.220000000000000000e+02
-3.270000000000000000e+02
-3.030000000000000000e+02
-2.870000000000000000e+02
-3.010000000000000000e+02
-3.240000000000000000e+02
-3.270000000000000000e+02
-3.170000000000000000e+02
-3.150000000000000000e+02
-3.030000000000000000e+02
-2.890000000000000000e+02
-2.720000000000000000e+02
-2.530000000000000000e+02
-2.580000000000000000e+02
-2.770000000000000000e+02
-2.820000000000000000e+02
-2.700000000000000000e+02
-2.560000000000000000e+02
-2.440000000000000000e+02
-2.390000000000000000e+02
-2.460000000000000000e+02
-2.490000000000000000e+02
-2.410000000000000000e+02
-2.600000000000000000e+02
-2.790000000000000000e+02
-1.680000000000000000e+02
1.160000000000000000e+02
3.670000000000000000e+02
1.960000000000000000e+02
-3.770000000000000000e+02
-6.850000000000000000e+02
-4.760000000000000000e+02
-2.890000000000000000e+02
-3.010000000000000000e+02
-2.560000000000000000e+02
-2.040000000000000000e+02
-2.270000000000000000e+02
-2.270000000000000000e+02
-1.940000000000000000e+02
-1.990000000000000000e+02
-2.040000000000000000e+02
-1.820000000000000000e+02
-1.610000000000000000e+02
-1.660000000000000000e+02
-1.850000000000000000e+02
-1.800000000000000000e+02
-1.680000000000000000e+02
-1.800000000000000000e+02
-1.730000000000000000e+02
-1.470000000000000000e+02
-1.320000000000000000e+02
-1.230000000000000000e+02
-9.700000000000000000e+01
-6.400000000000000000e+01
-3.700000000000000000e+01
-3.700000000000000000e+01
-4.900000000000000000e+01
-4.700000000000000000e+01
-4.200000000000000000e+01
-7.100000000000000000e+01
-1.250000000000000000e+02
-1.750000000000000000e+02
-2.370000000000000000e+02
-2.940000000000000000e+02
-3.200000000000000000e+02
-3.320000000000000000e+02
-3.430000000000000000e+02
-3.620000000000000000e+02
-3.700000000000000000e+02
-3.550000000000000000e+02
-3.460000000000000000e+02
-3.670000000000000000e+02
-3.860000000000000000e+02
-3.720000000000000000e+02
-3.740000000000000000e+02
-4.080000000000000000e+02
-3.860000000000000000e+02
-3.410000000000000000e+02
-3.460000000000000000e+02
-3.550000000000000000e+02
-3.360000000000000000e+02
-3.220000000000000000e+02
-3.170000000000000000e+02
-3.130000000000000000e+02
-2.960000000000000000e+02
-2.870000000000000000e+02
-2.960000000000000000e+02
-3.030000000000000000e+02
-3.080000000000000000e+02
-3.030000000000000000e+02
-2.960000000000000000e+02
-2.980000000000000000e+02
-2.980000000000000000e+02
-2.890000000000000000e+02
-2.770000000000000000e+02
-2.680000000000000000e+02
-2.490000000000000000e+02
-2.340000000000000000e+02
-2.390000000000000000e+02
-2.250000000000000000e+02
-2.060000000000000000e+02
-2.270000000000000000e+02
-2.340000000000000000e+02
-2.200000000000000000e+02
-2.250000000000000000e+02
-2.270000000000000000e+02
-2.200000000000000000e+02
-2.300000000000000000e+02
-2.390000000000000000e+02
-2.440000000000000000e+02
-2.460000000000000000e+02
-2.510000000000000000e+02
-1.960000000000000000e+02
1.400000000000000000e+01
3.130000000000000000e+02
3.650000000000000000e+02
-8.700000000000000000e+01
-6.000000000000000000e+02
-5.660000000000000000e+02
-2.980000000000000000e+02
-2.680000000000000000e+02
-2.910000000000000000e+02
-2.370000000000000000e+02
-2.250000000000000000e+02
-2.340000000000000000e+02
-2.180000000000000000e+02
-2.040000000000000000e+02
-1.960000000000000000e+02
-1.940000000000000000e+02
-2.040000000000000000e+02
-2.150000000000000000e+02
-2.080000000000000000e+02
-2.060000000000000000e+02
-2.130000000000000000e+02
-2.060000000000000000e+02
-1.870000000000000000e+02
-1.750000000000000000e+02
-1.850000000000000000e+02
-1.800000000000000000e+02
-1.490000000000000000e+02
-1.440000000000000000e+02
-1.510000000000000000e+02
-1.280000000000000000e+02
-1.020000000000000000e+02
-9.200000000000000000e+01
-9.700000000000000000e+01
-1.060000000000000000e+02
-1.320000000000000000e+02
-1.870000000000000000e+02
-2.440000000000000000e+02
-2.870000000000000000e+02
-3.360000000000000000e+02
-3.930000000000000000e+02
-4.170000000000000000e+02
-4.080000000000000000e+02
-3.980000000000000000e+02
-4.030000000000000000e+02
-3.980000000000000000e+02
-3.890000000000000000e+02
-3.740000000000000000e+02
-3.650000000000000000e+02
-3.580000000000000000e+02
-3.390000000000000000e+02
-3.220000000000000000e+02
-3.240000000000000000e+02
-3.150000000000000000e+02
-2.980000000000000000e+02
-2.870000000000000000e+02
-2.840000000000000000e+02
-2.750000000000000000e+02
-2.680000000000000000e+02
-2.680000000000000000e+02
-2.530000000000000000e+02
-2.410000000000000000e+02
-2.460000000000000000e+02
-2.410000000000000000e+02
-2.370000000000000000e+02
-2.340000000000000000e+02
-2.270000000000000000e+02
-2.250000000000000000e+02
-2.270000000000000000e+02
-2.220000000000000000e+02
-2.130000000000000000e+02
-2.110000000000000000e+02
-2.250000000000000000e+02
-2.300000000000000000e+02
-2.180000000000000000e+02
-2.200000000000000000e+02
-2.200000000000000000e+02
-2.060000000000000000e+02
-1.920000000000000000e+02
-1.920000000000000000e+02
-1.990000000000000000e+02
-1.960000000000000000e+02
-2.060000000000000000e+02
-2.320000000000000000e+02
-2.370000000000000000e+02
-2.250000000000000000e+02
-2.200000000000000000e+02
-2.220000000000000000e+02
-2.300000000000000000e+02
-2.300000000000000000e+02
-2.510000000000000000e+02
-2.870000000000000000e+02
-2.870000000000000000e+02
-2.650000000000000000e+02
-1.770000000000000000e+02
6.400000000000000000e+01
3.360000000000000000e+02
2.650000000000000000e+02
-2.650000000000000000e+02
-6.520000000000000000e+02
-4.930000000000000000e+02
-2.870000000000000000e+02
-3.010000000000000000e+02
-2.870000000000000000e+02
-2.580000000000000000e+02
-2.960000000000000000e+02
-3.100000000000000000e+02
-3.010000000000000000e+02
-3.100000000000000000e+02
-3.010000000000000000e+02
-2.770000000000000000e+02
-2.770000000000000000e+02
-2.820000000000000000e+02
-2.600000000000000000e+02
-2.390000000000000000e+02
-2.300000000000000000e+02
-2.180000000000000000e+02
-2.040000000000000000e+02
-1.890000000000000000e+02
-1.680000000000000000e+02
-1.350000000000000000e+02
-1.040000000000000000e+02
-7.300000000000000000e+01
-4.700000000000000000e+01
-3.500000000000000000e+01
-2.600000000000000000e+01
-1.100000000000000000e+01
-1.400000000000000000e+01
-2.800000000000000000e+01
-6.600000000000000000e+01
-1.230000000000000000e+02
-1.730000000000000000e+02
-2.150000000000000000e+02
-2.530000000000000000e+02
-2.940000000000000000e+02
-3.340000000000000000e+02
-3.530000000000000000e+02
-3.670000000000000000e+02
-3.700000000000000000e+02
-3.510000000000000000e+02
-3.320000000000000000e+02
-3.290000000000000000e+02
-3.340000000000000000e+02
-3.270000000000000000e+02
-3.010000000000000000e+02
-2.890000000000000000e+02
-2.820000000000000000e+02
-2.720000000000000000e+02
-2.700000000000000000e+02
-2.630000000000000000e+02
-2.490000000000000000e+02
-2.410000000000000000e+02
-2.410000000000000000e+02
-2.410000000000000000e+02
-2.440000000000000000e+02
-2.390000000000000000e+02
-2.460000000000000000e+02
-2.770000000000000000e+02
-2.870000000000000000e+02
-2.650000000000000000e+02
-2.680000000000000000e+02
-2.750000000000000000e+02
-2.650000000000000000e+02
-2.600000000000000000e+02
-2.410000000000000000e+02
-2.180000000000000000e+02
-2.370000000000000000e+02
-2.560000000000000000e+02
-2.440000000000000000e+02
-2.600000000000000000e+02
-2.940000000000000000e+02
-2.940000000000000000e+02
-2.890000000000000000e+02
-2.960000000000000000e+02
-2.870000000000000000e+02
-2.650000000000000000e+02
-2.580000000000000000e+02
-2.680000000000000000e+02
-2.680000000000000000e+02
-2.580000000000000000e+02
-2.650000000000000000e+02
-2.200000000000000000e+02
1.800000000000000000e+01
3.460000000000000000e+02
3.030000000000000000e+02
-2.510000000000000000e+02
-6.850000000000000000e+02
-5.520000000000000000e+02
-3.340000000000000000e+02
-3.430000000000000000e+02
-3.200000000000000000e+02
-2.460000000000000000e+02
-2.650000000000000000e+02
-2.820000000000000000e+02
-2.530000000000000000e+02
-2.490000000000000000e+02
-2.530000000000000000e+02
-2.390000000000000000e+02
-2.200000000000000000e+02
-2.200000000000000000e+02
-2.370000000000000000e+02
-2.410000000000000000e+02
-2.220000000000000000e+02
-2.010000000000000000e+02
-1.870000000000000000e+02
-1.630000000000000000e+02
-1.300000000000000000e+02
-1.020000000000000000e+02
-8.000000000000000000e+01
-6.100000000000000000e+01
-3.700000000000000000e+01
-4.000000000000000000e+00
7.000000000000000000e+00
2.000000000000000000e+00
2.000000000000000000e+00
-1.400000000000000000e+01
-6.100000000000000000e+01
-1.160000000000000000e+02
-1.680000000000000000e+02
-2.200000000000000000e+02
-2.720000000000000000e+02
-3.130000000000000000e+02
-3.410000000000000000e+02
-3.770000000000000000e+02
-3.840000000000000000e+02
-3.700000000000000000e+02
-3.650000000000000000e+02
-3.550000000000000000e+02
-3.480000000000000000e+02
-3.360000000000000000e+02
-3.100000000000000000e+02
-3.080000000000000000e+02
-3.240000000000000000e+02
-3.130000000000000000e+02
-2.840000000000000000e+02
-2.770000000000000000e+02
-2.820000000000000000e+02
-2.680000000000000000e+02
-2.560000000000000000e+02
-2.580000000000000000e+02
-2.530000000000000000e+02
-2.370000000000000000e+02
-2.270000000000000000e+02
-2.370000000000000000e+02
-2.510000000000000000e+02
-2.270000000000000000e+02
-2.040000000000000000e+02
-2.110000000000000000e+02
-2.150000000000000000e+02
-2.060000000000000000e+02
-2.110000000000000000e+02
-2.370000000000000000e+02
-2.510000000000000000e+02
-2.370000000000000000e+02
-2.270000000000000000e+02
-2.300000000000000000e+02
-2.390000000000000000e+02
-2.530000000000000000e+02
-2.530000000000000000e+02
-2.510000000000000000e+02
-2.510000000000000000e+02
-2.370000000000000000e+02
-2.270000000000000000e+02
-2.340000000000000000e+02
-2.460000000000000000e+02
-2.440000000000000000e+02
-2.320000000000000000e+02
-2.460000000000000000e+02
-2.010000000000000000e+02
2.600000000000000000e+01
3.510000000000000000e+02
4.120000000000000000e+02
-6.400000000000000000e+01
-6.120000000000000000e+02
-6.070000000000000000e+02
-3.340000000000000000e+02
-2.790000000000000000e+02
-2.910000000000000000e+02
-2.370000000000000000e+02
-2.300000000000000000e+02
-2.440000000000000000e+02
-2.220000000000000000e+02
-2.080000000000000000e+02
-2.110000000000000000e+02
-1.890000000000000000e+02
-1.770000000000000000e+02
-1.870000000000000000e+02
-1.920000000000000000e+02
-1.990000000000000000e+02
-1.960000000000000000e+02
-1.800000000000000000e+02
-1.700000000000000000e+02
-1.440000000000000000e+02
-1.130000000000000000e+02
-9.200000000000000000e+01
-7.100000000000000000e+01
-5.900000000000000000e+01
-4.700000000000000000e+01
-2.600000000000000000e+01
-9.000000000000000000e+00
4.000000000000000000e+00
4.000000000000000000e+00
-1.400000000000000000e+01
-4.900000000000000000e+01
-1.060000000000000000e+02
-1.660000000000000000e+02
-2.180000000000000000e+02
-2.580000000000000000e+02
-2.790000000000000000e+02
-2.980000000000000000e+02
-3.170000000000000000e+02
-3.170000000000000000e+02
-3.010000000000000000e+02
-2.960000000000000000e+02
-3.010000000000000000e+02
-2.910000000000000000e+02
-2.720000000000000000e+02
-2.720000000000000000e+02
-2.720000000000000000e+02
-2.530000000000000000e+02
-2.340000000000000000e+02
-2.340000000000000000e+02
-2.370000000000000000e+02
-2.200000000000000000e+02
-2.150000000000000000e+02
-2.320000000000000000e+02
-2.410000000000000000e+02
-2.390000000000000000e+02
-2.530000000000000000e+02
-2.720000000000000000e+02
-2.650000000000000000e+02
-2.490000000000000000e+02
-2.440000000000000000e+02
-2.440000000000000000e+02
-2.440000000000000000e+02
-2.370000000000000000e+02
-2.390000000000000000e+02
-2.580000000000000000e+02
-2.600000000000000000e+02
-2.440000000000000000e+02
-2.490000000000000000e+02
-2.560000000000000000e+02
-2.340000000000000000e+02
-2.150000000000000000e+02
-2.130000000000000000e+02
-2.010000000000000000e+02
-1.870000000000000000e+02
-2.040000000000000000e+02
-2.200000000000000000e+02
-2.150000000000000000e+02
-2.080000000000000000e+02
-2.080000000000000000e+02
-2.060000000000000000e+02
-2.180000000000000000e+02
-2.390000000000000000e+02
-2.410000000000000000e+02
-2.340000000000000000e+02
-2.490000000000000000e+02
-2.510000000000000000e+02
-1.230000000000000000e+02
1.510000000000000000e+02
3.430000000000000000e+02
1.160000000000000000e+02
-4.640000000000000000e+02
-7.230000000000000000e+02
-4.720000000000000000e+02
-2.960000000000000000e+02
-3.170000000000000000e+02
-2.750000000000000000e+02
-2.410000000000000000e+02
-2.650000000000000000e+02
-2.580000000000000000e+02
-2.220000000000000000e+02
-2.150000000000000000e+02
-2.130000000000000000e+02
-1.960000000000000000e+02
-1.920000000000000000e+02
-1.920000000000000000e+02
-1.700000000000000000e+02
-1.540000000000000000e+02
-1.470000000000000000e+02
-1.350000000000000000e+02
-1.160000000000000000e+02
-9.400000000000000000e+01
-7.500000000000000000e+01
-4.700000000000000000e+01
-1.100000000000000000e+01
7.000000000000000000e+00
1.600000000000000000e+01
3.500000000000000000e+01
5.900000000000000000e+01
7.300000000000000000e+01
4.900000000000000000e+01
0.000000000000000000e+00
-5.600000000000000000e+01
-1.280000000000000000e+02
-1.990000000000000000e+02
-2.460000000000000000e+02
-2.750000000000000000e+02
-3.030000000000000000e+02
-3.290000000000000000e+02
-3.290000000000000000e+02
-3.150000000000000000e+02
-3.150000000000000000e+02
-3.100000000000000000e+02
-2.960000000000000000e+02
-2.890000000000000000e+02
-2.890000000000000000e+02
-2.750000000000000000e+02
-2.560000000000000000e+02
-2.530000000000000000e+02
-2.530000000000000000e+02
-2.440000000000000000e+02
-2.320000000000000000e+02
-2.200000000000000000e+02
-2.180000000000000000e+02
-2.150000000000000000e+02
-2.060000000000000000e+02
-2.110000000000000000e+02
-2.340000000000000000e+02
-2.630000000000000000e+02
-2.720000000000000000e+02
-2.600000000000000000e+02
-2.720000000000000000e+02
-2.980000000000000000e+02
-3.060000000000000000e+02
-2.960000000000000000e+02
-2.840000000000000000e+02
-2.790000000000000000e+02
-2.790000000000000000e+02
-2.790000000000000000e+02
-2.770000000000000000e+02
-2.530000000000000000e+02
-2.270000000000000000e+02
-2.250000000000000000e+02
-2.180000000000000000e+02
-2.150000000000000000e+02
-2.320000000000000000e+02
-2.340000000000000000e+02
-2.250000000000000000e+02
-2.200000000000000000e+02
-2.200000000000000000e+02
-2.320000000000000000e+02
-2.490000000000000000e+02
-2.510000000000000000e+02
-2.510000000000000000e+02
-2.630000000000000000e+02
-2.770000000000000000e+02
-2.410000000000000000e+02
-8.300000000000000000e+01
2.060000000000000000e+02
3.650000000000000000e+02
4.700000000000000000e+01
-5.120000000000000000e+02
-6.380000000000000000e+02
-3.670000000000000000e+02
-2.680000000000000000e+02
-3.150000000000000000e+02
-2.680000000000000000e+02
-2.250000000000000000e+02
-2.410000000000000000e+02
-2.340000000000000000e+02
-2.130000000000000000e+02
-2.080000000000000000e+02
-1.990000000000000000e+02
-1.890000000000000000e+02
-1.800000000000000000e+02
-1.700000000000000000e+02
-1.540000000000000000e+02
-1.510000000000000000e+02
-1.630000000000000000e+02
-1.540000000000000000e+02
-1.280000000000000000e+02
-1.130000000000000000e+02
-9.400000000000000000e+01
-6.400000000000000000e+01
-2.800000000000000000e+01
0.000000000000000000e+00
1.600000000000000000e+01
2.800000000000000000e+01
4.900000000000000000e+01
5.900000000000000000e+01
4.000000000000000000e+01
4.000000000000000000e+00
-4.200000000000000000e+01
-1.180000000000000000e+02
-2.060000000000000000e+02
-2.560000000000000000e+02
-2.840000000000000000e+02
-3.270000000000000000e+02
-3.550000000000000000e+02
-3.480000000000000000e+02
-3.290000000000000000e+02
-3.290000000000000000e+02
-3.270000000000000000e+02
-3.080000000000000000e+02
-3.060000000000000000e+02
-3.030000000000000000e+02
-2.840000000000000000e+02
-2.650000000000000000e+02
-2.600000000000000000e+02
-2.600000000000000000e+02
-2.510000000000000000e+02
-2.370000000000000000e+02
-2.340000000000000000e+02
-2.300000000000000000e+02
-2.200000000000000000e+02
-2.180000000000000000e+02
-2.320000000000000000e+02
-2.410000000000000000e+02
-2.320000000000000000e+02
-2.200000000000000000e+02
-2.220000000000000000e+02
-2.300000000000000000e+02
-2.270000000000000000e+02
-2.180000000000000000e+02
-2.200000000000000000e+02
-2.270000000000000000e+02
-2.150000000000000000e+02
-2.080000000000000000e+02
-2.300000000000000000e+02
-2.440000000000000000e+02
-2.300000000000000000e+02
-2.150000000000000000e+02
-2.180000000000000000e+02
-2.220000000000000000e+02
-2.150000000000000000e+02
-2.060000000000000000e+02
-2.110000000000000000e+02
-2.180000000000000000e+02
-2.130000000000000000e+02
-2.130000000000000000e+02
-2.300000000000000000e+02
-2.250000000000000000e+02
-2.130000000000000000e+02
-2.370000000000000000e+02
-2.580000000000000000e+02
-2.490000000000000000e+02
-2.440000000000000000e+02
-2.560000000000000000e+02
-2.790000000000000000e+02
-2.840000000000000000e+02
-2.600000000000000000e+02
-2.560000000000000000e+02
-2.770000000000000000e+02
-2.720000000000000000e+02
-1.800000000000000000e+02
6.100000000000000000e+01
3.340000000000000000e+02
2.890000000000000000e+02
-2.110000000000000000e+02
-6.330000000000000000e+02
-5.360000000000000000e+02
-3.200000000000000000e+02
-2.940000000000000000e+02
-2.890000000000000000e+02
-2.630000000000000000e+02
-2.560000000000000000e+02
-2.320000000000000000e+02
-2.130000000000000000e+02
-2.110000000000000000e+02
-1.990000000000000000e+02
-1.850000000000000000e+02
-1.870000000000000000e+02
-1.800000000000000000e+02
-1.510000000000000000e+02
-1.320000000000000000e+02
-1.350000000000000000e+02
-1.280000000000000000e+02
-1.060000000000000000e+02
-8.000000000000000000e+01
-6.100000000000000000e+01
-3.700000000000000000e+01
-2.000000000000000000e+00
1.800000000000000000e+01
3.000000000000000000e+01
5.400000000000000000e+01
7.800000000000000000e+01
8.700000000000000000e+01
7.800000000000000000e+01
5.900000000000000000e+01
4.000000000000000000e+01
-7.000000000000000000e+00
-8.000000000000000000e+01
-1.510000000000000000e+02
-2.110000000000000000e+02
-2.490000000000000000e+02
-2.720000000000000000e+02
-2.770000000000000000e+02
-2.750000000000000000e+02
-2.790000000000000000e+02
-2.820000000000000000e+02
-2.720000000000000000e+02
-2.600000000000000000e+02
-2.600000000000000000e+02
-2.560000000000000000e+02
-2.320000000000000000e+02
-2.220000000000000000e+02
-2.320000000000000000e+02
-2.300000000000000000e+02
-2.110000000000000000e+02
-2.080000000000000000e+02
-2.300000000000000000e+02
-2.370000000000000000e+02
-2.200000000000000000e+02
-2.220000000000000000e+02
-2.320000000000000000e+02
-2.320000000000000000e+02
-2.250000000000000000e+02
-2.130000000000000000e+02
-2.180000000000000000e+02
-2.250000000000000000e+02
-2.110000000000000000e+02
-2.040000000000000000e+02
-2.130000000000000000e+02
-2.130000000000000000e+02
-2.250000000000000000e+02
-2.650000000000000000e+02
-2.940000000000000000e+02
-2.840000000000000000e+02
-2.680000000000000000e+02
-2.700000000000000000e+02
-2.890000000000000000e+02
-3.060000000000000000e+02
-2.960000000000000000e+02
-2.820000000000000000e+02
-3.150000000000000000e+02
-3.430000000000000000e+02
-3.360000000000000000e+02
-3.290000000000000000e+02
-3.290000000000000000e+02
-3.220000000000000000e+02
-3.080000000000000000e+02
-2.980000000000000000e+02
-3.030000000000000000e+02
-3.030000000000000000e+02
-2.960000000000000000e+02
-2.770000000000000000e+02
-1.470000000000000000e+02
1.420000000000000000e+02
3.620000000000000000e+02
1.230000000000000000e+02
-4.570000000000000000e+02
-6.660000000000000000e+02
-4.150000000000000000e+02
-2.790000000000000000e+02
-2.960000000000000000e+02
-2.390000000000000000e+02
-2.110000000000000000e+02
-2.490000000000000000e+02
-2.390000000000000000e+02
-2.060000000000000000e+02
-2.080000000000000000e+02
-2.040000000000000000e+02
-1.870000000000000000e+02
-1.730000000000000000e+02
-1.540000000000000000e+02
-1.490000000000000000e+02
-1.470000000000000000e+02
-1.250000000000000000e+02
-1.040000000000000000e+02
-9.000000000000000000e+01
-6.600000000000000000e+01
-4.000000000000000000e+01
-2.100000000000000000e+01
0.000000000000000000e+00
4.000000000000000000e+01
6.800000000000000000e+01
7.300000000000000000e+01
8.000000000000000000e+01
8.500000000000000000e+01
7.800000000000000000e+01
5.200000000000000000e+01
2.000000000000000000e+00
-5.600000000000000000e+01
-1.130000000000000000e+02
-1.700000000000000000e+02
-2.150000000000000000e+02
-2.320000000000000000e+02
-2.370000000000000000e+02
-2.530000000000000000e+02
-2.750000000000000000e+02
-2.770000000000000000e+02
-2.980000000000000000e+02
-3.270000000000000000e+02
-3.200000000000000000e+02
-2.910000000000000000e+02
-2.890000000000000000e+02
-3.200000000000000000e+02
-3.390000000000000000e+02
-3.270000000000000000e+02
-3.150000000000000000e+02
-3.080000000000000000e+02
-2.980000000000000000e+02
-2.980000000000000000e+02
-2.940000000000000000e+02
-2.840000000000000000e+02
-2.700000000000000000e+02
-2.580000000000000000e+02
-2.600000000000000000e+02
-2.700000000000000000e+02
-2.630000000000000000e+02
-2.410000000000000000e+02
-2.410000000000000000e+02
-2.460000000000000000e+02
-2.320000000000000000e+02
-2.250000000000000000e+02
-2.270000000000000000e+02
-2.250000000000000000e+02
-2.200000000000000000e+02
-2.180000000000000000e+02
-2.270000000000000000e+02
-2.600000000000000000e+02
-2.770000000000000000e+02
-2.650000000000000000e+02
-2.530000000000000000e+02
-2.530000000000000000e+02
-2.390000000000000000e+02
-2.320000000000000000e+02
-2.560000000000000000e+02
-2.680000000000000000e+02
-2.510000000000000000e+02
-2.440000000000000000e+02
-2.490000000000000000e+02
-2.510000000000000000e+02
-2.460000000000000000e+02
-2.270000000000000000e+02
-2.220000000000000000e+02
-2.300000000000000000e+02
-2.270000000000000000e+02
-1.890000000000000000e+02
-9.000000000000000000e+00
2.960000000000000000e+02
4.080000000000000000e+02
2.800000000000000000e+01
-5.100000000000000000e+02
-5.590000000000000000e+02
-2.750000000000000000e+02
-1.940000000000000000e+02
-2.220000000000000000e+02
-1.660000000000000000e+02
-1.420000000000000000e+02
-1.630000000000000000e+02
-1.580000000000000000e+02
-1.490000000000000000e+02
-1.580000000000000000e+02
-1.560000000000000000e+02
-1.420000000000000000e+02
-1.440000000000000000e+02
-1.630000000000000000e+02
-1.800000000000000000e+02
-1.700000000000000000e+02
-1.440000000000000000e+02
-1.280000000000000000e+02
-1.200000000000000000e+02
-9.700000000000000000e+01
-6.100000000000000000e+01
-2.600000000000000000e+01
-2.000000000000000000e+00
1.400000000000000000e+01
3.000000000000000000e+01
4.700000000000000000e+01
5.200000000000000000e+01
3.300000000000000000e+01
1.600000000000000000e+01
0.000000000000000000e+00
-5.900000000000000000e+01
-1.280000000000000000e+02
-1.700000000000000000e+02
-2.060000000000000000e+02
-2.460000000000000000e+02
-2.720000000000000000e+02
-2.840000000000000000e+02
-2.840000000000000000e+02
-2.870000000000000000e+02
-2.910000000000000000e+02
-3.060000000000000000e+02
-3.290000000000000000e+02
-3.360000000000000000e+02
-3.220000000000000000e+02
-3.060000000000000000e+02
-2.940000000000000000e+02
-2.940000000000000000e+02
-2.870000000000000000e+02
-2.750000000000000000e+02
-2.700000000000000000e+02
-2.600000000000000000e+02
-2.490000000000000000e+02
-2.390000000000000000e+02
-2.390000000000000000e+02
-2.410000000000000000e+02
-2.300000000000000000e+02
-2.150000000000000000e+02
-2.150000000000000000e+02
-2.130000000000000000e+02
-2.080000000000000000e+02
-2.130000000000000000e+02
-2.250000000000000000e+02
-2.320000000000000000e+02
-2.320000000000000000e+02
-2.440000000000000000e+02
-2.580000000000000000e+02
-2.560000000000000000e+02
-2.510000000000000000e+02
-2.460000000000000000e+02
-2.440000000000000000e+02
-2.440000000000000000e+02
-2.410000000000000000e+02
-2.560000000000000000e+02
-2.720000000000000000e+02
-2.600000000000000000e+02
-2.340000000000000000e+02
-2.200000000000000000e+02
-2.220000000000000000e+02
-2.370000000000000000e+02
-2.720000000000000000e+02
-3.010000000000000000e+02
-2.960000000000000000e+02
-2.750000000000000000e+02
-2.650000000000000000e+02
-2.700000000000000000e+02
-2.680000000000000000e+02
-2.490000000000000000e+02
-2.370000000000000000e+02
-2.390000000000000000e+02
-2.340000000000000000e+02
-1.680000000000000000e+02
5.200000000000000000e+01
3.410000000000000000e+02
3.410000000000000000e+02
-1.250000000000000000e+02
-5.620000000000000000e+02
-4.830000000000000000e+02
-2.600000000000000000e+02
-2.490000000000000000e+02
-2.390000000000000000e+02
-1.770000000000000000e+02
-1.890000000000000000e+02
-1.990000000000000000e+02
-1.680000000000000000e+02
-1.560000000000000000e+02
-1.660000000000000000e+02
-1.580000000000000000e+02
-1.370000000000000000e+02
-1.350000000000000000e+02
-1.320000000000000000e+02
-1.110000000000000000e+02
-9.700000000000000000e+01
-9.000000000000000000e+01
-7.800000000000000000e+01
-6.100000000000000000e+01
-3.300000000000000000e+01
-9.000000000000000000e+00
1.600000000000000000e+01
5.200000000000000000e+01
7.500000000000000000e+01
8.300000000000000000e+01
9.700000000000000000e+01
1.200000000000000000e+02
1.280000000000000000e+02
9.700000000000000000e+01
5.900000000000000000e+01
1.100000000000000000e+01
-5.200000000000000000e+01
-1.110000000000000000e+02
-1.510000000000000000e+02
-1.870000000000000000e+02
-2.300000000000000000e+02
-2.600000000000000000e+02
-2.580000000000000000e+02
-2.460000000000000000e+02
-2.410000000000000000e+02
-2.490000000000000000e+02
-2.680000000000000000e+02
-2.750000000000000000e+02
-2.630000000000000000e+02
-2.530000000000000000e+02
-2.440000000000000000e+02
-2.320000000000000000e+02
-2.250000000000000000e+02
-2.340000000000000000e+02
-2.580000000000000000e+02
-2.720000000000000000e+02
-2.630000000000000000e+02
-2.510000000000000000e+02
-2.440000000000000000e+02
-2.490000000000000000e+02
-2.580000000000000000e+02
-2.680000000000000000e+02
-2.600000000000000000e+02
-2.600000000000000000e+02
-2.910000000000000000e+02
-3.010000000000000000e+02
-2.770000000000000000e+02
-2.790000000000000000e+02
-2.910000000000000000e+02
-2.790000000000000000e+02
-2.600000000000000000e+02
-2.650000000000000000e+02
-2.720000000000000000e+02
-2.600000000000000000e+02
-2.410000000000000000e+02
-2.340000000000000000e+02
-2.320000000000000000e+02
-2.390000000000000000e+02
-2.490000000000000000e+02
-2.490000000000000000e+02
-2.650000000000000000e+02
-2.910000000000000000e+02
-2.840000000000000000e+02
-2.700000000000000000e+02
-2.790000000000000000e+02
-2.720000000000000000e+02
-2.440000000000000000e+02
-2.370000000000000000e+02
-2.460000000000000000e+02
-2.370000000000000000e+02
-2.270000000000000000e+02
-2.320000000000000000e+02
-1.610000000000000000e+02
8.700000000000000000e+01
3.840000000000000000e+02
3.510000000000000000e+02
-1.470000000000000000e+02
-5.660000000000000000e+02
-4.550000000000000000e+02
-2.270000000000000000e+02
-2.200000000000000000e+02
-1.990000000000000000e+02
-1.250000000000000000e+02
-1.350000000000000000e+02
-1.490000000000000000e+02
-1.110000000000000000e+02
-9.700000000000000000e+01
-1.130000000000000000e+02
-1.130000000000000000e+02
-9.700000000000000000e+01
-9.400000000000000000e+01
-1.040000000000000000e+02
-9.000000000000000000e+01
-7.100000000000000000e+01
-6.400000000000000000e+01
-5.600000000000000000e+01
-3.300000000000000000e+01
-9.000000000000000000e+00
1.400000000000000000e+01
3.300000000000000000e+01
4.200000000000000000e+01
5.200000000000000000e+01
7.300000000000000000e+01
8.700000000000000000e+01
8.700000000000000000e+01
8.300000000000000000e+01
6.800000000000000000e+01
3.700000000000000000e+01
-1.100000000000000000e+01
-9.000000000000000000e+01
-1.730000000000000000e+02
-2.300000000000000000e+02
-2.580000000000000000e+02
-2.680000000000000000e+02
-2.820000000000000000e+02
-2.940000000000000000e+02
-2.870000000000000000e+02
-2.870000000000000000e+02
-2.890000000000000000e+02
-2.750000000000000000e+02
-2.530000000000000000e+02
-2.490000000000000000e+02
-2.770000000000000000e+02
-2.910000000000000000e+02
-2.700000000000000000e+02
-2.440000000000000000e+02
-2.340000000000000000e+02
-2.340000000000000000e+02
-2.300000000000000000e+02
-2.320000000000000000e+02
-2.600000000000000000e+02
-2.820000000000000000e+02
-2.720000000000000000e+02
-2.790000000000000000e+02
-3.080000000000000000e+02
-3.100000000000000000e+02
-2.940000000000000000e+02
-2.890000000000000000e+02
-2.910000000000000000e+02
-2.820000000000000000e+02
-2.720000000000000000e+02
-2.770000000000000000e+02
-2.820000000000000000e+02
-2.720000000000000000e+02
-2.460000000000000000e+02
-2.300000000000000000e+02
-2.300000000000000000e+02
-2.130000000000000000e+02
-1.960000000000000000e+02
-2.110000000000000000e+02
-2.320000000000000000e+02
-2.220000000000000000e+02
-2.060000000000000000e+02
-2.200000000000000000e+02
-2.340000000000000000e+02
-2.270000000000000000e+02
-2.060000000000000000e+02
-1.940000000000000000e+02
-2.040000000000000000e+02
-2.110000000000000000e+02
-1.850000000000000000e+02
-5.600000000000000000e+01
2.370000000000000000e+02
4.760000000000000000e+02
2.490000000000000000e+02
-3.580000000000000000e+02
-6.330000000000000000e+02
-3.960000000000000000e+02
-2.200000000000000000e+02
-2.390000000000000000e+02
-1.960000000000000000e+02
-1.540000000000000000e+02
-1.700000000000000000e+02
-1.540000000000000000e+02
-1.250000000000000000e+02
-1.250000000000000000e+02
-1.180000000000000000e+02
-1.060000000000000000e+02
-9.900000000000000000e+01
-8.700000000000000000e+01
-7.100000000000000000e+01
-6.100000000000000000e+01
-5.400000000000000000e+01
-3.500000000000000000e+01
-1.600000000000000000e+01
2.000000000000000000e+00
2.100000000000000000e+01
3.300000000000000000e+01
5.200000000000000000e+01
7.300000000000000000e+01
9.900000000000000000e+01
1.230000000000000000e+02
1.320000000000000000e+02
1.320000000000000000e+02
1.250000000000000000e+02
8.700000000000000000e+01
3.300000000000000000e+01
-2.600000000000000000e+01
-9.000000000000000000e+01
-1.390000000000000000e+02
-1.770000000000000000e+02
-2.110000000000000000e+02
-2.220000000000000000e+02
-2.220000000000000000e+02
-2.220000000000000000e+02
-2.250000000000000000e+02
-2.250000000000000000e+02
-2.390000000000000000e+02
-2.720000000000000000e+02
-2.790000000000000000e+02
-2.630000000000000000e+02
-2.560000000000000000e+02
-2.530000000000000000e+02
-2.510000000000000000e+02
-2.440000000000000000e+02
-2.320000000000000000e+02
-2.220000000000000000e+02
-2.200000000000000000e+02
-2.340000000000000000e+02
-2.510000000000000000e+02
-2.440000000000000000e+02
-2.270000000000000000e+02
-2.220000000000000000e+02
-2.200000000000000000e+02
-2.220000000000000000e+02
-2.180000000000000000e+02
-2.080000000000000000e+02
-2.110000000000000000e+02
-2.250000000000000000e+02
-2.300000000000000000e+02
-2.370000000000000000e+02
-2.790000000000000000e+02
-3.150000000000000000e+02
-2.980000000000000000e+02
-2.820000000000000000e+02
-2.770000000000000000e+02
-2.700000000000000000e+02
-2.630000000000000000e+02
-2.410000000000000000e+02
-2.300000000000000000e+02
-2.390000000000000000e+02
-2.530000000000000000e+02
-2.530000000000000000e+02
-2.510000000000000000e+02
-2.510000000000000000e+02
-2.340000000000000000e+02
-2.200000000000000000e+02
-2.250000000000000000e+02
-2.220000000000000000e+02
-2.200000000000000000e+02
-2.410000000000000000e+02
-2.560000000000000000e+02
-1.580000000000000000e+02
1.060000000000000000e+02
3.840000000000000000e+02
3.010000000000000000e+02
-2.270000000000000000e+02
-6.070000000000000000e+02
-4.450000000000000000e+02
-2.180000000000000000e+02
-2.270000000000000000e+02
-2.130000000000000000e+02
-1.510000000000000000e+02
-1.580000000000000000e+02
-1.610000000000000000e+02
-1.350000000000000000e+02
-1.250000000000000000e+02
-1.300000000000000000e+02
-1.200000000000000000e+02
-1.040000000000000000e+02
-9.400000000000000000e+01
-8.700000000000000000e+01
-7.500000000000000000e+01
-6.600000000000000000e+01
-5.600000000000000000e+01
-4.200000000000000000e+01
-1.600000000000000000e+01
1.100000000000000000e+01
2.800000000000000000e+01
4.000000000000000000e+01
6.600000000000000000e+01
9.700000000000000000e+01
1.060000000000000000e+02
1.090000000000000000e+02
1.230000000000000000e+02
1.110000000000000000e+02
6.100000000000000000e+01
4.000000000000000000e+00
-4.900000000000000000e+01
-1.130000000000000000e+02
-1.750000000000000000e+02
-2.150000000000000000e+02
-2.390000000000000000e+02
-2.530000000000000000e+02
-2.650000000000000000e+02
-2.600000000000000000e+02
-2.560000000000000000e+02
-2.840000000000000000e+02
-3.240000000000000000e+02
-3.240000000000000000e+02
-2.980000000000000000e+02
-2.940000000000000000e+02
-3.030000000000000000e+02
-2.960000000000000000e+02
-2.790000000000000000e+02
-2.700000000000000000e+02
-2.650000000000000000e+02
-2.530000000000000000e+02
-2.390000000000000000e+02
-2.460000000000000000e+02
-2.410000000000000000e+02
-2.250000000000000000e+02
-2.150000000000000000e+02
-2.130000000000000000e+02
-2.270000000000000000e+02
-2.440000000000000000e+02
-2.300000000000000000e+02
-2.180000000000000000e+02
-2.220000000000000000e+02
-2.250000000000000000e+02
-2.370000000000000000e+02
-2.530000000000000000e+02
-2.650000000000000000e+02
-2.650000000000000000e+02
-2.580000000000000000e+02
-2.560000000000000000e+02
-2.580000000000000000e+02
-2.560000000000000000e+02
-2.370000000000000000e+02
-2.220000000000000000e+02
-2.180000000000000000e+02
-2.040000000000000000e+02
-2.110000000000000000e+02
-2.390000000000000000e+02
-2.410000000000000000e+02
-2.220000000000000000e+02
-2.150000000000000000e+02
-2.180000000000000000e+02
-2.200000000000000000e+02
-2.130000000000000000e+02
-2.040000000000000000e+02
-2.040000000000000000e+02
-2.040000000000000000e+02
-1.890000000000000000e+02
-1.130000000000000000e+02
9.400000000000000000e+01
3.600000000000000000e+02
3.360000000000000000e+02
-1.540000000000000000e+02
-5.760000000000000000e+02
-4.620000000000000000e+02
-2.320000000000000000e+02
-2.370000000000000000e+02
-2.490000000000000000e+02
-1.940000000000000000e+02
-1.820000000000000000e+02
-1.960000000000000000e+02
-1.850000000000000000e+02
-1.660000000000000000e+02
-1.560000000000000000e+02
-1.490000000000000000e+02
-1.370000000000000000e+02
-1.230000000000000000e+02
-1.350000000000000000e+02
-1.630000000000000000e+02
-1.610000000000000000e+02
-1.320000000000000000e+02
-1.090000000000000000e+02
-9.200000000000000000e+01
-7.500000000000000000e+01
-5.200000000000000000e+01
-9.000000000000000000e+00
2.300000000000000000e+01
4.500000000000000000e+01
6.400000000000000000e+01
8.000000000000000000e+01
8.700000000000000000e+01
8.300000000000000000e+01
5.200000000000000000e+01
-9.000000000000000000e+00
-6.800000000000000000e+01
-1.180000000000000000e+02
-1.730000000000000000e+02
-2.150000000000000000e+02
-2.440000000000000000e+02
-2.580000000000000000e+02
-2.630000000000000000e+02
-2.720000000000000000e+02
-2.720000000000000000e+02
-2.560000000000000000e+02
-2.510000000000000000e+02
-2.630000000000000000e+02
-2.720000000000000000e+02
-2.680000000000000000e+02
-2.580000000000000000e+02
-2.510000000000000000e+02
-2.440000000000000000e+02
-2.300000000000000000e+02
-2.250000000000000000e+02
-2.300000000000000000e+02
-2.250000000000000000e+02
-2.110000000000000000e+02
-2.010000000000000000e+02
-2.040000000000000000e+02
-2.010000000000000000e+02
-1.940000000000000000e+02
-1.890000000000000000e+02
-1.890000000000000000e+02
-1.920000000000000000e+02
-1.820000000000000000e+02
-1.940000000000000000e+02
-2.270000000000000000e+02
-2.340000000000000000e+02
-2.270000000000000000e+02
-2.340000000000000000e+02
-2.490000000000000000e+02
-2.600000000000000000e+02
-2.560000000000000000e+02
-2.460000000000000000e+02
-2.410000000000000000e+02
-2.300000000000000000e+02
-2.150000000000000000e+02
-2.040000000000000000e+02
-2.110000000000000000e+02
-2.300000000000000000e+02
-2.250000000000000000e+02
-2.390000000000000000e+02
-2.680000000000000000e+02
-2.630000000000000000e+02
-2.650000000000000000e+02
-3.080000000000000000e+02
-3.200000000000000000e+02
-2.890000000000000000e+02
-2.790000000000000000e+02
-2.940000000000000000e+02
-2.790000000000000000e+02
-1.680000000000000000e+02
9.900000000000000000e+01
3.550000000000000000e+02
2.200000000000000000e+02
-3.170000000000000000e+02
-6.310000000000000000e+02
-4.480000000000000000e+02
-2.650000000000000000e+02
-2.700000000000000000e+02
-2.320000000000000000e+02
-1.890000000000000000e+02
-2.080000000000000000e+02
-1.960000000000000000e+02
-1.700000000000000000e+02
-1.730000000000000000e+02
-1.610000000000000000e+02
-1.350000000000000000e+02
-1.320000000000000000e+02
-1.320000000000000000e+02
-1.130000000000000000e+02
-9.200000000000000000e+01
-8.500000000000000000e+01
-8.000000000000000000e+01
-6.100000000000000000e+01
-3.500000000000000000e+01
-9.000000000000000000e+00
1.800000000000000000e+01
4.700000000000000000e+01
7.800000000000000000e+01
9.700000000000000000e+01
1.060000000000000000e+02
1.250000000000000000e+02
1.470000000000000000e+02
1.350000000000000000e+02
9.700000000000000000e+01
5.600000000000000000e+01
-4.000000000000000000e+00
-8.000000000000000000e+01
-1.370000000000000000e+02
-1.850000000000000000e+02
-2.300000000000000000e+02
-2.510000000000000000e+02
-2.510000000000000000e+02
-2.440000000000000000e+02
-2.370000000000000000e+02
-2.340000000000000000e+02
-2.370000000000000000e+02
-2.370000000000000000e+02
-2.250000000000000000e+02
-2.220000000000000000e+02
-2.300000000000000000e+02
-2.220000000000000000e+02
-2.200000000000000000e+02
-2.300000000000000000e+02
-2.180000000000000000e+02
-2.110000000000000000e+02
-2.130000000000000000e+02
-2.010000000000000000e+02
-1.960000000000000000e+02
-2.180000000000000000e+02
-2.580000000000000000e+02
-2.910000000000000000e+02
-2.940000000000000000e+02
-2.720000000000000000e+02
-2.680000000000000000e+02
-2.790000000000000000e+02
-2.750000000000000000e+02
-2.530000000000000000e+02
-2.560000000000000000e+02
-2.630000000000000000e+02
-2.600000000000000000e+02
-2.700000000000000000e+02
-2.890000000000000000e+02
-2.870000000000000000e+02
-2.600000000000000000e+02
-2.560000000000000000e+02
-2.750000000000000000e+02
-2.770000000000000000e+02
-2.790000000000000000e+02
-2.890000000000000000e+02
-2.910000000000000000e+02
-2.820000000000000000e+02
-2.700000000000000000e+02
-2.750000000000000000e+02
-2.820000000000000000e+02
-2.680000000000000000e+02
-2.410000000000000000e+02
-2.340000000000000000e+02
-2.510000000000000000e+02
-2.580000000000000000e+02
-1.510000000000000000e+02
1.250000000000000000e+02
4.170000000000000000e+02
3.320000000000000000e+02
-2.270000000000000000e+02
-6.350000000000000000e+02
-4.760000000000000000e+02
-2.560000000000000000e+02
-2.510000000000000000e+02
-2.080000000000000000e+02
-1.510000000000000000e+02
-1.730000000000000000e+02
-1.850000000000000000e+02
-1.660000000000000000e+02
-1.610000000000000000e+02
-1.580000000000000000e+02
-1.370000000000000000e+02
-1.250000000000000000e+02
-1.230000000000000000e+02
-1.060000000000000000e+02
-9.400000000000000000e+01
-8.700000000000000000e+01
-7.300000000000000000e+01
-5.900000000000000000e+01
-3.000000000000000000e+01
0.000000000000000000e+00
2.100000000000000000e+01
4.900000000000000000e+01
8.700000000000000000e+01
1.060000000000000000e+02
1.180000000000000000e+02
1.420000000000000000e+02
1.510000000000000000e+02
1.370000000000000000e+02
1.060000000000000000e+02
4.000000000000000000e+01
-6.100000000000000000e+01
-1.490000000000000000e+02
-1.890000000000000000e+02
-2.180000000000000000e+02
-2.680000000000000000e+02
-3.170000000000000000e+02
-3.340000000000000000e+02
-3.220000000000000000e+02
-3.240000000000000000e+02
-3.410000000000000000e+02
-3.390000000000000000e+02
-3.290000000000000000e+02
-3.200000000000000000e+02
-3.010000000000000000e+02
-2.870000000000000000e+02
-2.820000000000000000e+02
-2.700000000000000000e+02
-2.650000000000000000e+02
-2.750000000000000000e+02
-2.700000000000000000e+02
-2.560000000000000000e+02
-2.510000000000000000e+02
-2.440000000000000000e+02
-2.370000000000000000e+02
-2.340000000000000000e+02
-2.340000000000000000e+02
-2.250000000000000000e+02
-2.130000000000000000e+02
-2.180000000000000000e+02
-2.200000000000000000e+02
-2.060000000000000000e+02
-1.990000000000000000e+02
-2.040000000000000000e+02
-1.990000000000000000e+02
-1.870000000000000000e+02
-1.890000000000000000e+02
-1.960000000000000000e+02
-1.890000000000000000e+02
-1.770000000000000000e+02
-1.800000000000000000e+02
-1.990000000000000000e+02
-2.180000000000000000e+02
-2.110000000000000000e+02
-2.130000000000000000e+02
-2.410000000000000000e+02
-2.490000000000000000e+02
-2.390000000000000000e+02
-2.440000000000000000e+02
-2.460000000000000000e+02
-2.370000000000000000e+02
-2.250000000000000000e+02
-2.150000000000000000e+02
-2.200000000000000000e+02
-2.300000000000000000e+02
-2.270000000000000000e+02
-1.680000000000000000e+02
2.800000000000000000e+01
3.550000000000000000e+02
4.760000000000000000e+02
4.700000000000000000e+01
-5.380000000000000000e+02
-5.710000000000000000e+02
-2.720000000000000000e+02
-2.010000000000000000e+02
-2.320000000000000000e+02
-1.920000000000000000e+02
-1.990000000000000000e+02
-2.200000000000000000e+02
-1.870000000000000000e+02
-1.610000000000000000e+02
-1.580000000000000000e+02
-1.540000000000000000e+02
-1.560000000000000000e+02
-1.580000000000000000e+02
-1.370000000000000000e+02
-1.180000000000000000e+02
-1.110000000000000000e+02
-9.900000000000000000e+01
-7.800000000000000000e+01
-6.100000000000000000e+01
-4.200000000000000000e+01
-2.000000000000000000e+00
2.600000000000000000e+01
2.600000000000000000e+01
3.500000000000000000e+01
6.600000000000000000e+01
9.400000000000000000e+01
1.020000000000000000e+02
9.700000000000000000e+01
7.800000000000000000e+01
3.000000000000000000e+01
-2.800000000000000000e+01
-8.500000000000000000e+01
-1.370000000000000000e+02
-1.870000000000000000e+02
-2.340000000000000000e+02
-2.510000000000000000e+02
-2.410000000000000000e+02
-2.440000000000000000e+02
-2.510000000000000000e+02
-2.410000000000000000e+02
-2.370000000000000000e+02
-2.320000000000000000e+02
-2.270000000000000000e+02
-2.320000000000000000e+02
-2.370000000000000000e+02
-2.440000000000000000e+02
-2.530000000000000000e+02
-2.490000000000000000e+02
-2.270000000000000000e+02
-2.220000000000000000e+02
-2.270000000000000000e+02
-2.180000000000000000e+02
-2.080000000000000000e+02
-2.040000000000000000e+02
-1.920000000000000000e+02
-1.850000000000000000e+02
-1.800000000000000000e+02
-1.820000000000000000e+02
-1.870000000000000000e+02
-1.800000000000000000e+02
-1.770000000000000000e+02
-1.820000000000000000e+02
-1.750000000000000000e+02
-1.630000000000000000e+02
-1.630000000000000000e+02
-1.730000000000000000e+02
-1.730000000000000000e+02
-1.730000000000000000e+02
-1.770000000000000000e+02
-2.040000000000000000e+02
-2.440000000000000000e+02
-2.530000000000000000e+02
-2.340000000000000000e+02
-2.340000000000000000e+02
-2.440000000000000000e+02
-2.510000000000000000e+02
-2.700000000000000000e+02
-2.650000000000000000e+02
-2.370000000000000000e+02
-2.150000000000000000e+02
-2.080000000000000000e+02
-2.080000000000000000e+02
-2.180000000000000000e+02
-2.250000000000000000e+02
-2.250000000000000000e+02
-2.200000000000000000e+02
-2.130000000000000000e+02
-2.110000000000000000e+02
-2.110000000000000000e+02
-2.110000000000000000e+02
-1.990000000000000000e+02
-1.890000000000000000e+02
-1.890000000000000000e+02
-1.960000000000000000e+02
-1.750000000000000000e+02
-1.100000000000000000e+01
2.890000000000000000e+02
4.530000000000000000e+02
1.660000000000000000e+02
-4.050000000000000000e+02
-6.000000000000000000e+02
-3.320000000000000000e+02
-1.770000000000000000e+02
-2.150000000000000000e+02
-1.850000000000000000e+02
-1.420000000000000000e+02
-1.560000000000000000e+02
-1.660000000000000000e+02
-1.610000000000000000e+02
-1.540000000000000000e+02
-1.370000000000000000e+02
-1.250000000000000000e+02
-1.250000000000000000e+02
-1.160000000000000000e+02
-9.200000000000000000e+01
-8.000000000000000000e+01
-7.500000000000000000e+01
-6.400000000000000000e+01
-4.200000000000000000e+01
-1.600000000000000000e+01
2.000000000000000000e+00
2.800000000000000000e+01
6.600000000000000000e+01
9.400000000000000000e+01
1.130000000000000000e+02
1.300000000000000000e+02
1.540000000000000000e+02
1.610000000000000000e+02
1.440000000000000000e+02
1.160000000000000000e+02
6.600000000000000000e+01
-7.000000000000000000e+00
-7.500000000000000000e+01
-1.180000000000000000e+02
-1.560000000000000000e+02
-2.130000000000000000e+02
-2.720000000000000000e+02
-2.870000000000000000e+02
-2.790000000000000000e+02
-2.890000000000000000e+02
-2.940000000000000000e+02
-2.840000000000000000e+02
-2.770000000000000000e+02
-2.840000000000000000e+02
-2.790000000000000000e+02
-2.530000000000000000e+02
-2.410000000000000000e+02
-2.510000000000000000e+02
-2.460000000000000000e+02
-2.300000000000000000e+02
-2.200000000000000000e+02
-2.200000000000000000e+02
-2.110000000000000000e+02
-1.890000000000000000e+02
-1.920000000000000000e+02
-1.990000000000000000e+02
-1.890000000000000000e+02
-1.820000000000000000e+02
-1.920000000000000000e+02
-2.110000000000000000e+02
-2.200000000000000000e+02
-2.250000000000000000e+02
-2.300000000000000000e+02
-2.270000000000000000e+02
-2.270000000000000000e+02
-2.300000000000000000e+02
-2.440000000000000000e+02
-2.680000000000000000e+02
-2.650000000000000000e+02
-2.440000000000000000e+02
-2.340000000000000000e+02
-2.410000000000000000e+02
-2.560000000000000000e+02
-2.510000000000000000e+02
-2.410000000000000000e+02
-2.440000000000000000e+02
-2.320000000000000000e+02
-2.200000000000000000e+02
-2.270000000000000000e+02
-2.300000000000000000e+02
-2.080000000000000000e+02
-1.850000000000000000e+02
-1.800000000000000000e+02
-1.700000000000000000e+02
-1.540000000000000000e+02
-1.420000000000000000e+02
-1.510000000000000000e+02
-1.680000000000000000e+02
-1.700000000000000000e+02
-1.580000000000000000e+02
-1.610000000000000000e+02
-1.580000000000000000e+02
-1.420000000000000000e+02
-1.420000000000000000e+02
-1.470000000000000000e+02
-1.440000000000000000e+02
-1.370000000000000000e+02
-1.370000000000000000e+02
-1.420000000000000000e+02
-7.300000000000000000e+01
1.510000000000000000e+02
4.120000000000000000e+02
3.930000000000000000e+02
-7.300000000000000000e+01
-5.360000000000000000e+02
-4.740000000000000000e+02
-2.220000000000000000e+02
-1.990000000000000000e+02
-2.130000000000000000e+02
-1.580000000000000000e+02
-1.510000000000000000e+02
-1.490000000000000000e+02
-1.180000000000000000e+02
-1.180000000000000000e+02
-1.300000000000000000e+02
-1.090000000000000000e+02
-9.000000000000000000e+01
-9.200000000000000000e+01
-8.300000000000000000e+01
-6.600000000000000000e+01
-6.100000000000000000e+01
-4.900000000000000000e+01
-2.800000000000000000e+01
-7.000000000000000000e+00
9.000000000000000000e+00
3.000000000000000000e+01
4.900000000000000000e+01
7.500000000000000000e+01
1.040000000000000000e+02
1.180000000000000000e+02
1.250000000000000000e+02
1.370000000000000000e+02
1.350000000000000000e+02
1.130000000000000000e+02
7.500000000000000000e+01
1.400000000000000000e+01
-7.100000000000000000e+01
-1.490000000000000000e+02
-1.990000000000000000e+02
-2.220000000000000000e+02
-2.560000000000000000e+02
-2.940000000000000000e+02
-2.980000000000000000e+02
-2.840000000000000000e+02
-2.870000000000000000e+02
-2.910000000000000000e+02
-2.720000000000000000e+02
-2.560000000000000000e+02
-2.530000000000000000e+02
-2.560000000000000000e+02
-2.630000000000000000e+02
-2.680000000000000000e+02
-2.700000000000000000e+02
-2.790000000000000000e+02
-2.750000000000000000e+02
-2.650000000000000000e+02
-2.700000000000000000e+02
-2.700000000000000000e+02
-2.580000000000000000e+02
-2.440000000000000000e+02
-2.440000000000000000e+02
-2.510000000000000000e+02
-2.410000000000000000e+02
-2.300000000000000000e+02
-2.270000000000000000e+02
-2.220000000000000000e+02
-2.370000000000000000e+02
-2.790000000000000000e+02
-3.080000000000000000e+02
-2.890000000000000000e+02
-2.650000000000000000e+02
-2.650000000000000000e+02
-2.560000000000000000e+02
-2.410000000000000000e+02
-2.370000000000000000e+02
-2.320000000000000000e+02
-2.270000000000000000e+02
-2.180000000000000000e+02
-2.040000000000000000e+02
-2.010000000000000000e+02
-2.040000000000000000e+02
-1.890000000000000000e+02
-1.750000000000000000e+02
-1.770000000000000000e+02
-1.750000000000000000e+02
-1.560000000000000000e+02
-1.390000000000000000e+02
-1.370000000000000000e+02
-1.300000000000000000e+02
-1.110000000000000000e+02
-1.060000000000000000e+02
-1.280000000000000000e+02
-1.390000000000000000e+02
-1.300000000000000000e+02
-1.280000000000000000e+02
-1.300000000000000000e+02
-1.230000000000000000e+02
-1.110000000000000000e+02
-1.060000000000000000e+02
-1.160000000000000000e+02
-1.300000000000000000e+02
-1.280000000000000000e+02
-7.800000000000000000e+01
9.700000000000000000e+01
3.810000000000000000e+02
4.980000000000000000e+02
1.350000000000000000e+02
-3.910000000000000000e+02
-4.410000000000000000e+02
-1.770000000000000000e+02
-1.300000000000000000e+02
-1.730000000000000000e+02
-1.250000000000000000e+02
-1.060000000000000000e+02
-1.180000000000000000e+02
-1.090000000000000000e+02
-1.040000000000000000e+02
-9.900000000000000000e+01
-8.500000000000000000e+01
-7.300000000000000000e+01
-7.500000000000000000e+01
-8.000000000000000000e+01
-8.300000000000000000e+01
-7.800000000000000000e+01
-5.900000000000000000e+01
-4.500000000000000000e+01
-3.500000000000000000e+01
-1.800000000000000000e+01
2.000000000000000000e+00
2.800000000000000000e+01
5.200000000000000000e+01
6.800000000000000000e+01
8.000000000000000000e+01
6.100000000000000000e+01
3.700000000000000000e+01
5.200000000000000000e+01
5.600000000000000000e+01
2.300000000000000000e+01
-3.300000000000000000e+01
-9.900000000000000000e+01
-1.580000000000000000e+02
-2.150000000000000000e+02
-2.700000000000000000e+02
-3.080000000000000000e+02
-3.290000000000000000e+02
-3.480000000000000000e+02
-3.600000000000000000e+02
-3.580000000000000000e+02
-3.480000000000000000e+02
-3.390000000000000000e+02
-3.340000000000000000e+02
-3.360000000000000000e+02
-3.320000000000000000e+02
-3.150000000000000000e+02
-3.030000000000000000e+02
-2.940000000000000000e+02
-2.820000000000000000e+02
-2.720000000000000000e+02
-2.680000000000000000e+02
-2.600000000000000000e+02
-2.440000000000000000e+02
-2.300000000000000000e+02
-2.300000000000000000e+02
-2.340000000000000000e+02
-2.490000000000000000e+02
-2.580000000000000000e+02
-2.440000000000000000e+02
-2.300000000000000000e+02
-2.200000000000000000e+02
-2.180000000000000000e+02
-2.220000000000000000e+02
-2.180000000000000000e+02
-2.060000000000000000e+02
-1.940000000000000000e+02
-1.870000000000000000e+02
-1.870000000000000000e+02
-1.850000000000000000e+02
-1.800000000000000000e+02
-1.730000000000000000e+02
-1.630000000000000000e+02
-1.610000000000000000e+02
-1.540000000000000000e+02
-1.510000000000000000e+02
-1.470000000000000000e+02
-1.230000000000000000e+02
-1.280000000000000000e+02
-1.660000000000000000e+02
-1.730000000000000000e+02
-1.610000000000000000e+02
-1.660000000000000000e+02
-1.660000000000000000e+02
-1.510000000000000000e+02
-1.440000000000000000e+02
-1.490000000000000000e+02
-1.510000000000000000e+02
-1.490000000000000000e+02
-1.580000000000000000e+02
-1.580000000000000000e+02
-7.500000000000000000e+01
1.580000000000000000e+02
4.310000000000000000e+02
3.340000000000000000e+02
-2.390000000000000000e+02
-6.160000000000000000e+02
-4.340000000000000000e+02
-2.370000000000000000e+02
-2.440000000000000000e+02
-1.870000000000000000e+02
-1.230000000000000000e+02
-1.440000000000000000e+02
-1.440000000000000000e+02
-1.320000000000000000e+02
-1.490000000000000000e+02
-1.490000000000000000e+02
-1.180000000000000000e+02
-1.020000000000000000e+02
-1.060000000000000000e+02
-1.040000000000000000e+02
-8.700000000000000000e+01
-7.100000000000000000e+01
-5.900000000000000000e+01
-4.900000000000000000e+01
-2.100000000000000000e+01
9.000000000000000000e+00
1.800000000000000000e+01
4.500000000000000000e+01
9.200000000000000000e+01
1.110000000000000000e+02
1.130000000000000000e+02
1.250000000000000000e+02
1.370000000000000000e+02
1.250000000000000000e+02
8.700000000000000000e+01
3.300000000000000000e+01
-3.700000000000000000e+01
-1.350000000000000000e+02
-2.200000000000000000e+02
-2.650000000000000000e+02
-2.840000000000000000e+02
-3.030000000000000000e+02
-3.220000000000000000e+02
-3.220000000000000000e+02
-3.200000000000000000e+02
-3.170000000000000000e+02
-3.100000000000000000e+02
-2.960000000000000000e+02
-2.840000000000000000e+02
-2.910000000000000000e+02
-2.980000000000000000e+02
-2.750000000000000000e+02
-2.580000000000000000e+02
-2.530000000000000000e+02
-2.410000000000000000e+02
-2.270000000000000000e+02
-2.220000000000000000e+02
-2.150000000000000000e+02
-2.060000000000000000e+02
-1.990000000000000000e+02
-1.940000000000000000e+02
-1.920000000000000000e+02
-2.060000000000000000e+02
-2.130000000000000000e+02
-1.960000000000000000e+02
-1.960000000000000000e+02
-2.180000000000000000e+02
-2.340000000000000000e+02
-2.370000000000000000e+02
-2.490000000000000000e+02
-2.600000000000000000e+02
-2.410000000000000000e+02
-2.270000000000000000e+02
-2.410000000000000000e+02
-2.440000000000000000e+02
-2.220000000000000000e+02
-2.110000000000000000e+02
-2.010000000000000000e+02
-1.890000000000000000e+02
-1.750000000000000000e+02
-1.610000000000000000e+02
-1.660000000000000000e+02
-1.800000000000000000e+02
-1.750000000000000000e+02
-1.680000000000000000e+02
-1.680000000000000000e+02
-1.660000000000000000e+02
-1.540000000000000000e+02
-1.490000000000000000e+02
-1.490000000000000000e+02
-1.390000000000000000e+02
-1.370000000000000000e+02
-1.470000000000000000e+02
-7.500000000000000000e+01
1.700000000000000000e+02
4.860000000000000000e+02
4.670000000000000000e+02
-8.500000000000000000e+01
-5.780000000000000000e+02
-4.640000000000000000e+02
-2.010000000000000000e+02
-1.890000000000000000e+02
-1.700000000000000000e+02
-9.900000000000000000e+01
-1.280000000000000000e+02
-1.540000000000000000e+02
-1.160000000000000000e+02
-9.900000000000000000e+01
-1.090000000000000000e+02
-1.020000000000000000e+02
-9.200000000000000000e+01
-9.200000000000000000e+01
-8.500000000000000000e+01
-6.800000000000000000e+01
-5.200000000000000000e+01
-4.200000000000000000e+01
-3.300000000000000000e+01
-1.800000000000000000e+01
4.000000000000000000e+00
4.200000000000000000e+01
7.100000000000000000e+01
9.700000000000000000e+01
1.230000000000000000e+02
1.420000000000000000e+02
1.560000000000000000e+02
1.510000000000000000e+02
1.160000000000000000e+02
6.600000000000000000e+01
2.000000000000000000e+00
-7.300000000000000000e+01
-1.440000000000000000e+02
-2.010000000000000000e+02
-2.680000000000000000e+02
-3.390000000000000000e+02
-3.720000000000000000e+02
-3.890000000000000000e+02
-4.100000000000000000e+02
-3.980000000000000000e+02
-3.790000000000000000e+02
-3.860000000000000000e+02
-3.840000000000000000e+02
-3.580000000000000000e+02
-3.390000000000000000e+02
-3.390000000000000000e+02
-3.290000000000000000e+02
-3.150000000000000000e+02
-3.060000000000000000e+02
-2.940000000000000000e+02
-2.790000000000000000e+02
-2.680000000000000000e+02
-2.530000000000000000e+02
-2.460000000000000000e+02
-2.410000000000000000e+02
-2.320000000000000000e+02
-2.200000000000000000e+02
-2.130000000000000000e+02
-2.080000000000000000e+02
-2.040000000000000000e+02
-2.220000000000000000e+02
-2.390000000000000000e+02
-2.250000000000000000e+02
-2.080000000000000000e+02
-2.060000000000000000e+02
-2.010000000000000000e+02
-1.990000000000000000e+02
-1.870000000000000000e+02
-1.750000000000000000e+02
-1.730000000000000000e+02
-1.680000000000000000e+02
-1.630000000000000000e+02
-1.660000000000000000e+02
-1.660000000000000000e+02
-1.440000000000000000e+02
-1.250000000000000000e+02
-1.200000000000000000e+02
-1.090000000000000000e+02
-9.900000000000000000e+01
-1.160000000000000000e+02
-1.300000000000000000e+02
-1.230000000000000000e+02
-1.130000000000000000e+02
-1.110000000000000000e+02
-1.180000000000000000e+02
-1.160000000000000000e+02
-9.700000000000000000e+01
-8.700000000000000000e+01
-9.900000000000000000e+01
-1.090000000000000000e+02
-6.100000000000000000e+01
1.390000000000000000e+02
4.450000000000000000e+02
5.360000000000000000e+02
1.320000000000000000e+02
-4.190000000000000000e+02
-4.860000000000000000e+02
-2.010000000000000000e+02
-1.060000000000000000e+02
-1.560000000000000000e+02
-1.490000000000000000e+02
-1.300000000000000000e+02
-1.350000000000000000e+02
-1.280000000000000000e+02
-1.130000000000000000e+02
-1.090000000000000000e+02
-1.130000000000000000e+02
-1.180000000000000000e+02
-1.230000000000000000e+02
-1.130000000000000000e+02
-9.700000000000000000e+01
-9.900000000000000000e+01
-1.110000000000000000e+02
-1.060000000000000000e+02
-8.000000000000000000e+01
-6.800000000000000000e+01
-5.200000000000000000e+01
-1.100000000000000000e+01
2.600000000000000000e+01
4.700000000000000000e+01
6.400000000000000000e+01
9.000000000000000000e+01
1.110000000000000000e+02
1.160000000000000000e+02
9.700000000000000000e+01
4.900000000000000000e+01
-1.600000000000000000e+01
-8.700000000000000000e+01
-1.660000000000000000e+02
-2.250000000000000000e+02
-2.650000000000000000e+02
-3.100000000000000000e+02
-3.390000000000000000e+02
-3.290000000000000000e+02
-3.240000000000000000e+02
-3.290000000000000000e+02
-3.240000000000000000e+02
-3.080000000000000000e+02
-3.060000000000000000e+02
-3.080000000000000000e+02
-2.940000000000000000e+02
-2.770000000000000000e+02
-2.700000000000000000e+02
-2.650000000000000000e+02
-2.630000000000000000e+02
-2.530000000000000000e+02
-2.440000000000000000e+02
-2.320000000000000000e+02
-2.180000000000000000e+02
-2.180000000000000000e+02
-2.180000000000000000e+02
-2.110000000000000000e+02
-2.010000000000000000e+02
-1.890000000000000000e+02
-1.870000000000000000e+02
-1.990000000000000000e+02
-2.110000000000000000e+02
-2.130000000000000000e+02
-2.080000000000000000e+02
-2.040000000000000000e+02
-1.960000000000000000e+02
-1.870000000000000000e+02
-1.920000000000000000e+02
-1.920000000000000000e+02
-1.800000000000000000e+02
-1.890000000000000000e+02
-2.180000000000000000e+02
-2.200000000000000000e+02
-1.940000000000000000e+02
-1.770000000000000000e+02
-1.750000000000000000e+02
-1.630000000000000000e+02
-1.610000000000000000e+02
-1.750000000000000000e+02
-1.850000000000000000e+02
-1.800000000000000000e+02
-1.630000000000000000e+02
-1.540000000000000000e+02
-1.560000000000000000e+02
-1.510000000000000000e+02
-1.470000000000000000e+02
-1.540000000000000000e+02
-1.750000000000000000e+02
-1.770000000000000000e+02
-7.300000000000000000e+01
1.770000000000000000e+02
4.380000000000000000e+02
3.770000000000000000e+02
-1.510000000000000000e+02
-5.690000000000000000e+02
-4.220000000000000000e+02
-1.800000000000000000e+02
-1.870000000000000000e+02
-1.890000000000000000e+02
-1.320000000000000000e+02
-1.280000000000000000e+02
-1.300000000000000000e+02
-1.110000000000000000e+02
-1.060000000000000000e+02
-9.900000000000000000e+01
-8.500000000000000000e+01
-8.000000000000000000e+01
-7.100000000000000000e+01
-5.600000000000000000e+01
-5.400000000000000000e+01
-4.500000000000000000e+01
-2.800000000000000000e+01
-9.000000000000000000e+00
1.100000000000000000e+01
2.800000000000000000e+01
3.700000000000000000e+01
4.700000000000000000e+01
7.100000000000000000e+01
1.020000000000000000e+02
1.180000000000000000e+02
1.350000000000000000e+02
1.420000000000000000e+02
1.250000000000000000e+02
1.060000000000000000e+02
7.300000000000000000e+01
0.000000000000000000e+00
-9.200000000000000000e+01
-1.580000000000000000e+02
-1.940000000000000000e+02
-2.220000000000000000e+02
-2.410000000000000000e+02
-2.490000000000000000e+02
-2.510000000000000000e+02
-2.530000000000000000e+02
-2.510000000000000000e+02
-2.410000000000000000e+02
-2.530000000000000000e+02
-2.940000000000000000e+02
-3.080000000000000000e+02
-3.010000000000000000e+02
-3.130000000000000000e+02
-3.170000000000000000e+02
-3.030000000000000000e+02
-2.910000000000000000e+02
-2.870000000000000000e+02
-2.910000000000000000e+02
-2.910000000000000000e+02
-2.770000000000000000e+02
-2.630000000000000000e+02
-2.580000000000000000e+02
-2.600000000000000000e+02
-2.510000000000000000e+02
-2.390000000000000000e+02
-2.390000000000000000e+02
-2.320000000000000000e+02
-2.200000000000000000e+02
-2.220000000000000000e+02
-2.370000000000000000e+02
-2.440000000000000000e+02
-2.270000000000000000e+02
-2.200000000000000000e+02
-2.410000000000000000e+02
-2.490000000000000000e+02
-2.250000000000000000e+02
-2.060000000000000000e+02
-1.990000000000000000e+02
-1.820000000000000000e+02
-1.700000000000000000e+02
-1.890000000000000000e+02
-2.060000000000000000e+02
-1.920000000000000000e+02
-1.770000000000000000e+02
-1.750000000000000000e+02
-1.700000000000000000e+02
-1.700000000000000000e+02
-1.660000000000000000e+02
-1.560000000000000000e+02
-1.540000000000000000e+02
-1.490000000000000000e+02
-1.350000000000000000e+02
-4.700000000000000000e+01
1.870000000000000000e+02
4.480000000000000000e+02
3.770000000000000000e+02
-1.350000000000000000e+02
-4.930000000000000000e+02
-3.270000000000000000e+02
-1.180000000000000000e+02
-1.320000000000000000e+02
-1.300000000000000000e+02
-9.200000000000000000e+01
-1.020000000000000000e+02
-1.040000000000000000e+02
-9.000000000000000000e+01
-8.000000000000000000e+01
-7.300000000000000000e+01
-6.100000000000000000e+01
-5.400000000000000000e+01
-4.200000000000000000e+01
-3.700000000000000000e+01
-4.000000000000000000e+01
-4.500000000000000000e+01
-5.400000000000000000e+01
-4.900000000000000000e+01
-3.000000000000000000e+01
-1.400000000000000000e+01
1.400000000000000000e+01
4.900000000000000000e+01
7.300000000000000000e+01
1.020000000000000000e+02
1.280000000000000000e+02
1.370000000000000000e+02
1.370000000000000000e+02
1.350000000000000000e+02
1.250000000000000000e+02
8.300000000000000000e+01
1.400000000000000000e+01
-4.500000000000000000e+01
-9.900000000000000000e+01
-1.610000000000000000e+02
-2.110000000000000000e+02
-2.410000000000000000e+02
-2.600000000000000000e+02
-2.790000000000000000e+02
-2.820000000000000000e+02
-2.650000000000000000e+02
-2.510000000000000000e+02
-2.530000000000000000e+02
-2.580000000000000000e+02
-2.460000000000000000e+02
-2.320000000000000000e+02
-2.490000000000000000e+02
-2.700000000000000000e+02
-2.510000000000000000e+02
-2.300000000000000000e+02
-2.390000000000000000e+02
-2.410000000000000000e+02
-2.180000000000000000e+02
-2.040000000000000000e+02
-2.080000000000000000e+02
-2.150000000000000000e+02
-2.220000000000000000e+02
-2.300000000000000000e+02
-2.390000000000000000e+02
-2.460000000000000000e+02
-2.340000000000000000e+02
-2.300000000000000000e+02
-2.440000000000000000e+02
-2.460000000000000000e+02
-2.300000000000000000e+02
-2.220000000000000000e+02
-2.180000000000000000e+02
-2.060000000000000000e+02
-2.060000000000000000e+02
-2.180000000000000000e+02
-2.080000000000000000e+02
-1.990000000000000000e+02
-2.150000000000000000e+02
-2.320000000000000000e+02
-2.270000000000000000e+02
-2.180000000000000000e+02
-2.060000000000000000e+02
-1.960000000000000000e+02
-1.920000000000000000e+02
-1.990000000000000000e+02
-1.960000000000000000e+02
-1.820000000000000000e+02
-1.960000000000000000e+02
-2.320000000000000000e+02
-1.820000000000000000e+02
1.600000000000000000e+01
3.080000000000000000e+02
4.050000000000000000e+02
1.800000000000000000e+01
-5.000000000000000000e+02
-5.190000000000000000e+02
-2.510000000000000000e+02
-1.990000000000000000e+02
-2.110000000000000000e+02
-1.420000000000000000e+02
-1.250000000000000000e+02
-1.370000000000000000e+02
-1.230000000000000000e+02
-1.160000000000000000e+02
-1.040000000000000000e+02
-9.400000000000000000e+01
-1.110000000000000000e+02
-1.110000000000000000e+02
-9.000000000000000000e+01
-8.000000000000000000e+01
-8.000000000000000000e+01
-6.100000000000000000e+01
-3.300000000000000000e+01
-9.000000000000000000e+00
4.000000000000000000e+00
2.300000000000000000e+01
5.400000000000000000e+01
9.000000000000000000e+01
1.160000000000000000e+02
1.420000000000000000e+02
1.660000000000000000e+02
1.660000000000000000e+02
1.580000000000000000e+02
1.580000000000000000e+02
1.280000000000000000e+02
6.100000000000000000e+01
-7.000000000000000000e+00
-6.800000000000000000e+01
-1.230000000000000000e+02
-1.800000000000000000e+02
-2.200000000000000000e+02
-2.300000000000000000e+02
-2.270000000000000000e+02
-2.390000000000000000e+02
-2.460000000000000000e+02
-2.390000000000000000e+02
-2.300000000000000000e+02
-2.370000000000000000e+02
-2.530000000000000000e+02
-2.460000000000000000e+02
-2.150000000000000000e+02
-2.110000000000000000e+02
-2.300000000000000000e+02
-2.080000000000000000e+02
-1.730000000000000000e+02
-1.850000000000000000e+02
-1.960000000000000000e+02
-1.700000000000000000e+02
-1.510000000000000000e+02
-1.470000000000000000e+02
-1.470000000000000000e+02
-1.470000000000000000e+02
-1.510000000000000000e+02
-1.680000000000000000e+02
-1.730000000000000000e+02
-1.610000000000000000e+02
-1.580000000000000000e+02
-1.560000000000000000e+02
-1.470000000000000000e+02
-1.560000000000000000e+02
-1.850000000000000000e+02
-1.920000000000000000e+02
-1.850000000000000000e+02
-1.920000000000000000e+02
-1.990000000000000000e+02
-1.820000000000000000e+02
-1.700000000000000000e+02
-1.940000000000000000e+02
-2.040000000000000000e+02
-1.940000000000000000e+02
-2.110000000000000000e+02
-2.150000000000000000e+02
-2.130000000000000000e+02
-1.770000000000000000e+02
1.400000000000000000e+01
3.240000000000000000e+02
4.360000000000000000e+02
6.800000000000000000e+01
-4.720000000000000000e+02
-5.450000000000000000e+02
-2.890000000000000000e+02
-2.060000000000000000e+02
-1.890000000000000000e+02
-1.090000000000000000e+02
-9.200000000000000000e+01
-1.160000000000000000e+02
-1.250000000000000000e+02
-1.160000000000000000e+02
-1.040000000000000000e+02
-9.200000000000000000e+01
-6.400000000000000000e+01
-4.500000000000000000e+01
-4.900000000000000000e+01
-4.000000000000000000e+01
-9.000000000000000000e+00
-1.600000000000000000e+01
-3.000000000000000000e+01
4.000000000000000000e+00
4.700000000000000000e+01
4.000000000000000000e+01
3.700000000000000000e+01
6.400000000000000000e+01
8.300000000000000000e+01
9.900000000000000000e+01
1.200000000000000000e+02
1.250000000000000000e+02
1.060000000000000000e+02
7.500000000000000000e+01
4.200000000000000000e+01
0.000000000000000000e+00
-6.600000000000000000e+01
-1.320000000000000000e+02
-1.800000000000000000e+02
-2.010000000000000000e+02
-2.110000000000000000e+02
-2.250000000000000000e+02
-2.270000000000000000e+02
-2.370000000000000000e+02
-2.750000000000000000e+02
-2.960000000000000000e+02
-2.750000000000000000e+02
-2.460000000000000000e+02
-2.530000000000000000e+02
-2.650000000000000000e+02
-2.440000000000000000e+02
-2.110000000000000000e+02
-2.080000000000000000e+02
-2.270000000000000000e+02
-2.370000000000000000e+02
-2.250000000000000000e+02
-2.250000000000000000e+02
-2.340000000000000000e+02
-2.200000000000000000e+02
-2.200000000000000000e+02
-2.460000000000000000e+02
-2.560000000000000000e+02
-2.370000000000000000e+02
-2.180000000000000000e+02
-2.200000000000000000e+02
-2.250000000000000000e+02
-2.180000000000000000e+02
-2.110000000000000000e+02
-2.110000000000000000e+02
-2.110000000000000000e+02
-1.870000000000000000e+02
-1.580000000000000000e+02
-1.610000000000000000e+02
-1.610000000000000000e+02
-1.490000000000000000e+02
-1.750000000000000000e+02
-2.040000000000000000e+02
-2.060000000000000000e+02
-2.250000000000000000e+02
-2.370000000000000000e+02
-2.270000000000000000e+02
-2.370000000000000000e+02
-2.370000000000000000e+02
-2.130000000000000000e+02
-2.200000000000000000e+02
-2.410000000000000000e+02
-2.340000000000000000e+02
-1.960000000000000000e+02
-3.500000000000000000e+01
2.770000000000000000e+02
4.050000000000000000e+02
1.800000000000000000e+01
-5.140000000000000000e+02
-5.520000000000000000e+02
-2.750000000000000000e+02
-2.130000000000000000e+02
-2.530000000000000000e+02
-2.060000000000000000e+02
-1.820000000000000000e+02
-1.990000000000000000e+02
-1.940000000000000000e+02
-1.850000000000000000e+02
-1.770000000000000000e+02
-1.750000000000000000e+02
-1.800000000000000000e+02
-1.730000000000000000e+02
-1.350000000000000000e+02
-1.060000000000000000e+02
-1.280000000000000000e+02
-1.300000000000000000e+02
-1.090000000000000000e+02
-1.250000000000000000e+02
-1.200000000000000000e+02
-6.400000000000000000e+01
-3.000000000000000000e+01
-2.600000000000000000e+01
-2.000000000000000000e+00
2.600000000000000000e+01
4.700000000000000000e+01
7.300000000000000000e+01
6.400000000000000000e+01
4.200000000000000000e+01
3.500000000000000000e+01
-2.300000000000000000e+01
-1.130000000000000000e+02
-1.610000000000000000e+02
-1.990000000000000000e+02
-2.370000000000000000e+02
-2.370000000000000000e+02
-2.460000000000000000e+02
-2.630000000000000000e+02
-2.580000000000000000e+02
-2.460000000000000000e+02
-2.340000000000000000e+02
-2.200000000000000000e+02
-2.200000000000000000e+02
-2.300000000000000000e+02
-2.180000000000000000e+02
-1.920000000000000000e+02
-2.110000000000000000e+02
-2.200000000000000000e+02
-1.800000000000000000e+02
-1.630000000000000000e+02
-1.820000000000000000e+02
-1.870000000000000000e+02
-1.800000000000000000e+02
-1.630000000000000000e+02
-1.560000000000000000e+02
-1.750000000000000000e+02
-1.890000000000000000e+02
-1.890000000000000000e+02
-1.870000000000000000e+02
-1.890000000000000000e+02
-1.890000000000000000e+02
-1.730000000000000000e+02
-1.850000000000000000e+02
-2.180000000000000000e+02
-2.220000000000000000e+02
-2.180000000000000000e+02
-2.150000000000000000e+02
-1.920000000000000000e+02
-1.660000000000000000e+02
-1.490000000000000000e+02
-1.510000000000000000e+02
-1.700000000000000000e+02
-1.770000000000000000e+02
-1.730000000000000000e+02
-1.770000000000000000e+02
-1.820000000000000000e+02
-1.850000000000000000e+02
-2.150000000000000000e+02
-2.340000000000000000e+02
-2.200000000000000000e+02
-2.340000000000000000e+02
-2.700000000000000000e+02
-2.720000000000000000e+02
-2.180000000000000000e+02
-2.600000000000000000e+01
2.220000000000000000e+02
1.800000000000000000e+02
-2.630000000000000000e+02
-6.140000000000000000e+02
-4.860000000000000000e+02
-2.820000000000000000e+02
-2.870000000000000000e+02
-2.720000000000000000e+02
-2.300000000000000000e+02
-2.390000000000000000e+02
-2.580000000000000000e+02
-2.630000000000000000e+02
-2.440000000000000000e+02
-2.150000000000000000e+02
-2.080000000000000000e+02
-2.110000000000000000e+02
-2.040000000000000000e+02
-1.770000000000000000e+02
-1.350000000000000000e+02
-1.110000000000000000e+02
-1.280000000000000000e+02
-1.280000000000000000e+02
-9.900000000000000000e+01
-8.300000000000000000e+01
-5.400000000000000000e+01
-4.000000000000000000e+00
2.100000000000000000e+01
4.000000000000000000e+01
8.000000000000000000e+01
9.200000000000000000e+01
7.500000000000000000e+01
7.100000000000000000e+01
8.300000000000000000e+01
4.500000000000000000e+01
-4.200000000000000000e+01
-9.900000000000000000e+01
-1.250000000000000000e+02
-1.660000000000000000e+02
-2.060000000000000000e+02
-2.180000000000000000e+02
-2.150000000000000000e+02
-2.220000000000000000e+02
-2.390000000000000000e+02
-2.340000000000000000e+02
-2.250000000000000000e+02
-2.220000000000000000e+02
-2.180000000000000000e+02
-2.300000000000000000e+02
-2.270000000000000000e+02
-1.940000000000000000e+02
-1.770000000000000000e+02
-1.870000000000000000e+02
-1.850000000000000000e+02
-1.680000000000000000e+02
-1.680000000000000000e+02
-1.750000000000000000e+02
-1.580000000000000000e+02
-1.470000000000000000e+02
-1.580000000000000000e+02
-1.540000000000000000e+02
-1.230000000000000000e+02
-1.250000000000000000e+02
-1.440000000000000000e+02
-1.560000000000000000e+02
-1.820000000000000000e+02
-2.080000000000000000e+02
-2.370000000000000000e+02
-2.580000000000000000e+02
-2.340000000000000000e+02
-2.130000000000000000e+02
-2.250000000000000000e+02
-2.110000000000000000e+02
-1.700000000000000000e+02
-1.660000000000000000e+02
-1.990000000000000000e+02
-2.250000000000000000e+02
-2.150000000000000000e+02
-1.940000000000000000e+02
-1.960000000000000000e+02
-1.940000000000000000e+02
-1.800000000000000000e+02
-1.990000000000000000e+02
-2.110000000000000000e+02
-1.750000000000000000e+02
-1.630000000000000000e+02
-1.770000000000000000e+02
-1.540000000000000000e+02
-3.500000000000000000e+01
2.200000000000000000e+02
3.550000000000000000e+02
3.700000000000000000e+01
-4.500000000000000000e+02
-5.100000000000000000e+02
-2.840000000000000000e+02
-2.340000000000000000e+02
-2.460000000000000000e+02
-1.770000000000000000e+02
-1.700000000000000000e+02
-1.960000000000000000e+02
-1.800000000000000000e+02
-1.540000000000000000e+02
-1.580000000000000000e+02
-1.540000000000000000e+02
-1.250000000000000000e+02
-1.160000000000000000e+02
-1.200000000000000000e+02
-1.180000000000000000e+02
-1.090000000000000000e+02
-9.700000000000000000e+01
-9.700000000000000000e+01
-8.000000000000000000e+01
-2.800000000000000000e+01
-1.400000000000000000e+01
-1.100000000000000000e+01
3.000000000000000000e+01
6.600000000000000000e+01
8.000000000000000000e+01
1.060000000000000000e+02
1.300000000000000000e+02
1.280000000000000000e+02
1.090000000000000000e+02
6.800000000000000000e+01
1.800000000000000000e+01
-3.500000000000000000e+01
-9.900000000000000000e+01
-1.510000000000000000e+02
-1.680000000000000000e+02
-1.770000000000000000e+02
-2.110000000000000000e+02
-2.440000000000000000e+02
-2.580000000000000000e+02
-2.580000000000000000e+02
-2.600000000000000000e+02
-2.460000000000000000e+02
-2.250000000000000000e+02
-2.200000000000000000e+02
-2.250000000000000000e+02
-2.320000000000000000e+02
-2.340000000000000000e+02
-2.300000000000000000e+02
-2.370000000000000000e+02
-2.560000000000000000e+02
-2.460000000000000000e+02
-2.220000000000000000e+02
-2.130000000000000000e+02
-2.080000000000000000e+02
-2.010000000000000000e+02
-2.040000000000000000e+02
-1.990000000000000000e+02
-1.820000000000000000e+02
-1.680000000000000000e+02
-1.580000000000000000e+02
-1.580000000000000000e+02
-1.580000000000000000e+02
-1.470000000000000000e+02
-1.370000000000000000e+02
-1.350000000000000000e+02
-1.350000000000000000e+02
-1.560000000000000000e+02
-1.750000000000000000e+02
-1.750000000000000000e+02
-1.700000000000000000e+02
-1.580000000000000000e+02
-1.490000000000000000e+02
-1.560000000000000000e+02
-1.610000000000000000e+02
-1.510000000000000000e+02
-1.470000000000000000e+02
-1.560000000000000000e+02
-1.130000000000000000e+02
7.500000000000000000e+01
3.600000000000000000e+02
4.220000000000000000e+02
-9.000000000000000000e+00
-5.170000000000000000e+02
-5.020000000000000000e+02
-2.460000000000000000e+02
-2.130000000000000000e+02
-2.220000000000000000e+02
-1.580000000000000000e+02
-1.660000000000000000e+02
-1.850000000000000000e+02
-1.580000000000000000e+02
-1.680000000000000000e+02
-1.820000000000000000e+02
-1.540000000000000000e+02
-1.390000000000000000e+02
-1.420000000000000000e+02
-1.280000000000000000e+02
-1.110000000000000000e+02
-1.040000000000000000e+02
-9.400000000000000000e+01
-7.100000000000000000e+01
-4.200000000000000000e+01
-3.500000000000000000e+01
-4.000000000000000000e+01
-1.600000000000000000e+01
2.100000000000000000e+01
4.700000000000000000e+01
6.800000000000000000e+01
9.200000000000000000e+01
9.400000000000000000e+01
6.100000000000000000e+01
2.100000000000000000e+01
-2.100000000000000000e+01
-7.500000000000000000e+01
-1.390000000000000000e+02
-2.010000000000000000e+02
-2.460000000000000000e+02
-2.680000000000000000e+02
-2.790000000000000000e+02
-2.870000000000000000e+02
-2.790000000000000000e+02
-2.680000000000000000e+02
-2.840000000000000000e+02
-3.060000000000000000e+02
-2.820000000000000000e+02
-2.630000000000000000e+02
-2.750000000000000000e+02
-2.630000000000000000e+02
-2.370000000000000000e+02
-2.270000000000000000e+02
-2.250000000000000000e+02
-2.130000000000000000e+02
-1.940000000000000000e+02
-1.940000000000000000e+02
-2.010000000000000000e+02
-1.920000000000000000e+02
-1.730000000000000000e+02
-1.630000000000000000e+02
-1.700000000000000000e+02
-1.680000000000000000e+02
-1.490000000000000000e+02
-1.490000000000000000e+02
-1.540000000000000000e+02
-1.390000000000000000e+02
-1.280000000000000000e+02
-1.250000000000000000e+02
-1.250000000000000000e+02
-1.350000000000000000e+02
-1.370000000000000000e+02
-1.300000000000000000e+02
-1.300000000000000000e+02
-1.250000000000000000e+02
-1.110000000000000000e+02
-1.200000000000000000e+02
-1.540000000000000000e+02
-1.470000000000000000e+02
-1.160000000000000000e+02
-1.280000000000000000e+02
-1.180000000000000000e+02
5.600000000000000000e+01
3.890000000000000000e+02
5.550000000000000000e+02
1.820000000000000000e+02
-4.150000000000000000e+02
-5.070000000000000000e+02
-2.080000000000000000e+02
-1.230000000000000000e+02
-1.580000000000000000e+02
-1.090000000000000000e+02
-1.280000000000000000e+02
-1.700000000000000000e+02
-1.390000000000000000e+02
-1.280000000000000000e+02
-1.580000000000000000e+02
-1.800000000000000000e+02
-1.870000000000000000e+02
-1.890000000000000000e+02
-1.920000000000000000e+02
-1.820000000000000000e+02
-1.610000000000000000e+02
-1.540000000000000000e+02
-1.560000000000000000e+02
-1.320000000000000000e+02
-8.500000000000000000e+01
-4.200000000000000000e+01
-2.100000000000000000e+01
7.000000000000000000e+00
3.300000000000000000e+01
4.000000000000000000e+01
5.600000000000000000e+01
8.500000000000000000e+01
9.900000000000000000e+01
6.800000000000000000e+01
-4.000000000000000000e+00
-6.600000000000000000e+01
-1.180000000000000000e+02
-1.940000000000000000e+02
-2.650000000000000000e+02
-2.890000000000000000e+02
-2.840000000000000000e+02
-2.890000000000000000e+02
-3.080000000000000000e+02
-3.010000000000000000e+02
-2.790000000000000000e+02
-2.770000000000000000e+02
-2.770000000000000000e+02
-2.910000000000000000e+02
-3.060000000000000000e+02
-2.790000000000000000e+02
-2.390000000000000000e+02
-2.270000000000000000e+02
-2.490000000000000000e+02
-2.580000000000000000e+02
-2.410000000000000000e+02
-2.270000000000000000e+02
-2.200000000000000000e+02
-2.130000000000000000e+02
-2.040000000000000000e+02
-1.750000000000000000e+02
-1.630000000000000000e+02
-1.890000000000000000e+02
-1.890000000000000000e+02
-1.560000000000000000e+02
-1.490000000000000000e+02
-1.420000000000000000e+02
-1.020000000000000000e+02
-9.400000000000000000e+01
-1.350000000000000000e+02
-1.510000000000000000e+02
-1.390000000000000000e+02
-1.230000000000000000e+02
-1.180000000000000000e+02
-1.200000000000000000e+02
-1.060000000000000000e+02
-1.060000000000000000e+02
-1.370000000000000000e+02
-1.580000000000000000e+02
-1.680000000000000000e+02
-1.470000000000000000e+02
2.600000000000000000e+01
3.270000000000000000e+02
3.980000000000000000e+02
-4.700000000000000000e+01
-5.570000000000000000e+02
-5.120000000000000000e+02
-2.300000000000000000e+02
-2.060000000000000000e+02
-2.270000000000000000e+02
-1.420000000000000000e+02
-1.370000000000000000e+02
-1.820000000000000000e+02
-1.510000000000000000e+02
-1.160000000000000000e+02
-1.280000000000000000e+02
-1.320000000000000000e+02
-1.200000000000000000e+02
-1.130000000000000000e+02
-8.700000000000000000e+01
-6.800000000000000000e+01
-8.300000000000000000e+01
-8.300000000000000000e+01
-6.600000000000000000e+01
-5.900000000000000000e+01
-3.700000000000000000e+01
-1.100000000000000000e+01
-2.800000000000000000e+01
-3.000000000000000000e+01
4.000000000000000000e+00
2.300000000000000000e+01
3.300000000000000000e+01
2.300000000000000000e+01
-7.000000000000000000e+00
-3.000000000000000000e+01
-6.400000000000000000e+01
-1.230000000000000000e+02
-1.800000000000000000e+02
-2.250000000000000000e+02
-2.600000000000000000e+02
-2.910000000000000000e+02
-3.170000000000000000e+02
-3.170000000000000000e+02
-3.060000000000000000e+02
-2.870000000000000000e+02
-2.750000000000000000e+02
-2.770000000000000000e+02
-2.650000000000000000e+02
-2.460000000000000000e+02
-2.390000000000000000e+02
-2.370000000000000000e+02
-2.320000000000000000e+02
-2.150000000000000000e+02
-1.960000000000000000e+02
-1.960000000000000000e+02
-1.990000000000000000e+02
-1.990000000000000000e+02
-1.990000000000000000e+02
-1.870000000000000000e+02
-1.750000000000000000e+02
-1.770000000000000000e+02
-1.680000000000000000e+02
-1.660000000000000000e+02
-1.990000000000000000e+02
-2.130000000000000000e+02
-1.850000000000000000e+02
-1.750000000000000000e+02
-2.010000000000000000e+02
-2.080000000000000000e+02
-1.940000000000000000e+02
-1.770000000000000000e+02
-1.700000000000000000e+02
-1.730000000000000000e+02
-1.510000000000000000e+02
-1.280000000000000000e+02
-1.280000000000000000e+02
-1.300000000000000000e+02
-1.200000000000000000e+02
-5.200000000000000000e+01
1.610000000000000000e+02
4.080000000000000000e+02
3.360000000000000000e+02
-1.300000000000000000e+02
-4.380000000000000000e+02
-2.680000000000000000e+02
-8.500000000000000000e+01
-1.090000000000000000e+02
-1.090000000000000000e+02
-8.000000000000000000e+01
-9.400000000000000000e+01
-9.400000000000000000e+01
-8.500000000000000000e+01
-9.400000000000000000e+01
-1.040000000000000000e+02
-9.700000000000000000e+01
-8.300000000000000000e+01
-8.300000000000000000e+01
-8.500000000000000000e+01
-8.700000000000000000e+01
-1.060000000000000000e+02
-1.160000000000000000e+02
-9.200000000000000000e+01
-6.400000000000000000e+01
-4.500000000000000000e+01
-1.100000000000000000e+01
1.400000000000000000e+01
1.600000000000000000e+01
3.500000000000000000e+01
5.900000000000000000e+01
5.600000000000000000e+01
4.500000000000000000e+01
1.600000000000000000e+01
-2.300000000000000000e+01
-5.600000000000000000e+01
-9.900000000000000000e+01
-1.540000000000000000e+02
-2.060000000000000000e+02
-2.440000000000000000e+02
-2.560000000000000000e+02
-2.560000000000000000e+02
-2.560000000000000000e+02
-2.410000000000000000e+02
-2.370000000000000000e+02
-2.460000000000000000e+02
-2.410000000000000000e+02
-2.180000000000000000e+02
-1.990000000000000000e+02
-2.040000000000000000e+02
-2.370000000000000000e+02
-2.650000000000000000e+02
-2.490000000000000000e+02
-2.250000000000000000e+02
-2.200000000000000000e+02
-2.080000000000000000e+02
-2.040000000000000000e+02
-2.060000000000000000e+02
-1.850000000000000000e+02
-1.660000000000000000e+02
-1.630000000000000000e+02
-1.580000000000000000e+02
-1.440000000000000000e+02
-1.350000000000000000e+02
-1.300000000000000000e+02
-1.370000000000000000e+02
-1.470000000000000000e+02
-1.440000000000000000e+02
-1.370000000000000000e+02
-1.350000000000000000e+02
-1.300000000000000000e+02
-1.250000000000000000e+02
-1.280000000000000000e+02
-1.200000000000000000e+02
-1.160000000000000000e+02
-1.230000000000000000e+02
-1.180000000000000000e+02
-3.500000000000000000e+01
1.770000000000000000e+02
3.740000000000000000e+02
2.340000000000000000e+02
-2.080000000000000000e+02
-4.050000000000000000e+02
-2.250000000000000000e+02
-1.160000000000000000e+02
-1.440000000000000000e+02
-1.090000000000000000e+02
-8.000000000000000000e+01
-1.040000000000000000e+02
-8.500000000000000000e+01
-6.100000000000000000e+01
-7.100000000000000000e+01
-6.600000000000000000e+01
-5.200000000000000000e+01
-5.900000000000000000e+01
-6.600000000000000000e+01
-6.800000000000000000e+01
-6.400000000000000000e+01
-6.600000000000000000e+01
-6.600000000000000000e+01
-4.700000000000000000e+01
-2.300000000000000000e+01
-4.000000000000000000e+00
1.400000000000000000e+01
3.500000000000000000e+01
5.600000000000000000e+01
7.100000000000000000e+01
8.700000000000000000e+01
1.020000000000000000e+02
1.060000000000000000e+02
9.700000000000000000e+01
6.600000000000000000e+01
1.100000000000000000e+01
-3.500000000000000000e+01
-7.100000000000000000e+01
-1.160000000000000000e+02
-1.680000000000000000e+02
-2.200000000000000000e+02
-2.510000000000000000e+02
-2.630000000000000000e+02
-2.630000000000000000e+02
-2.650000000000000000e+02
-2.750000000000000000e+02
-2.910000000000000000e+02
-2.870000000000000000e+02
-2.630000000000000000e+02
-2.460000000000000000e+02
-2.460000000000000000e+02
-2.510000000000000000e+02
-2.530000000000000000e+02
-2.460000000000000000e+02
-2.300000000000000000e+02
-2.180000000000000000e+02
-2.200000000000000000e+02
-2.200000000000000000e+02
-2.080000000000000000e+02
-1.960000000000000000e+02
-1.920000000000000000e+02
-1.850000000000000000e+02
-1.680000000000000000e+02
-1.540000000000000000e+02
-1.540000000000000000e+02
-1.660000000000000000e+02
-1.770000000000000000e+02
-1.680000000000000000e+02
-1.610000000000000000e+02
-1.750000000000000000e+02
-1.940000000000000000e+02
-1.770000000000000000e+02
-1.580000000000000000e+02
-1.660000000000000000e+02
-1.660000000000000000e+02
-1.560000000000000000e+02
-1.540000000000000000e+02
-1.020000000000000000e+02
8.700000000000000000e+01
3.410000000000000000e+02
3.340000000000000000e+02
-9.700000000000000000e+01
-4.500000000000000000e+02
-3.270000000000000000e+02
-1.370000000000000000e+02
-1.490000000000000000e+02
-1.200000000000000000e+02
-6.100000000000000000e+01
-9.700000000000000000e+01
-1.350000000000000000e+02
-1.130000000000000000e+02
-9.200000000000000000e+01
-8.300000000000000000e+01
-6.400000000000000000e+01
-6.100000000000000000e+01
-8.000000000000000000e+01
-6.100000000000000000e+01
-2.100000000000000000e+01
-1.600000000000000000e+01
-2.100000000000000000e+01
0.000000000000000000e+00
2.100000000000000000e+01
2.600000000000000000e+01
3.000000000000000000e+01
5.900000000000000000e+01
7.800000000000000000e+01
5.400000000000000000e+01
4.000000000000000000e+01
6.600000000000000000e+01
7.800000000000000000e+01
6.400000000000000000e+01
2.100000000000000000e+01
-5.200000000000000000e+01
-1.040000000000000000e+02
-1.250000000000000000e+02
-1.660000000000000000e+02
-2.110000000000000000e+02
-2.390000000000000000e+02
-2.440000000000000000e+02
-2.370000000000000000e+02
-2.460000000000000000e+02
-2.510000000000000000e+02
-2.300000000000000000e+02
-2.110000000000000000e+02
-2.250000000000000000e+02
-2.320000000000000000e+02
-2.010000000000000000e+02
-1.850000000000000000e+02
-2.010000000000000000e+02
-1.960000000000000000e+02
-1.870000000000000000e+02
-2.060000000000000000e+02
-2.200000000000000000e+02
-2.220000000000000000e+02
-2.370000000000000000e+02
-2.530000000000000000e+02
-2.600000000000000000e+02
-2.410000000000000000e+02
-2.150000000000000000e+02
-2.320000000000000000e+02
-2.340000000000000000e+02
-2.080000000000000000e+02
-2.200000000000000000e+02
-2.490000000000000000e+02
-2.370000000000000000e+02
-2.180000000000000000e+02
-2.130000000000000000e+02
-2.010000000000000000e+02
-2.080000000000000000e+02
-2.250000000000000000e+02
-2.180000000000000000e+02
-1.890000000000000000e+02
-1.730000000000000000e+02
-1.580000000000000000e+02
-4.500000000000000000e+01
2.250000000000000000e+02
4.190000000000000000e+02
1.730000000000000000e+02
-3.700000000000000000e+02
-5.450000000000000000e+02
-3.060000000000000000e+02
-1.730000000000000000e+02
-1.750000000000000000e+02
-1.200000000000000000e+02
-9.700000000000000000e+01
-1.280000000000000000e+02
-1.560000000000000000e+02
-1.630000000000000000e+02
-1.440000000000000000e+02
-1.230000000000000000e+02
-1.180000000000000000e+02
-1.370000000000000000e+02
-1.610000000000000000e+02
-1.390000000000000000e+02
-1.200000000000000000e+02
-1.200000000000000000e+02
-9.400000000000000000e+01
-7.100000000000000000e+01
-5.400000000000000000e+01
-3.000000000000000000e+01
0.000000000000000000e+00
3.000000000000000000e+01
4.900000000000000000e+01
7.100000000000000000e+01
8.300000000000000000e+01
7.800000000000000000e+01
8.000000000000000000e+01
6.600000000000000000e+01
2.600000000000000000e+01
-2.600000000000000000e+01
-9.900000000000000000e+01
-1.560000000000000000e+02
-1.990000000000000000e+02
-2.370000000000000000e+02
-2.530000000000000000e+02
-2.580000000000000000e+02
-2.600000000000000000e+02
-2.700000000000000000e+02
-2.840000000000000000e+02
-2.720000000000000000e+02
-2.510000000000000000e+02
-2.490000000000000000e+02
-2.490000000000000000e+02
-2.410000000000000000e+02
-2.250000000000000000e+02
-2.150000000000000000e+02
-2.080000000000000000e+02
-1.920000000000000000e+02
-1.960000000000000000e+02
-1.990000000000000000e+02
-1.800000000000000000e+02
-1.660000000000000000e+02
-1.560000000000000000e+02
-1.700000000000000000e+02
-1.800000000000000000e+02
-1.700000000000000000e+02
-1.730000000000000000e+02
-1.700000000000000000e+02
-1.700000000000000000e+02
-2.010000000000000000e+02
-2.130000000000000000e+02
-2.080000000000000000e+02
-2.010000000000000000e+02
-1.890000000000000000e+02
-1.870000000000000000e+02
-1.870000000000000000e+02
-1.890000000000000000e+02
-1.820000000000000000e+02
-1.700000000000000000e+02
-1.820000000000000000e+02
-1.200000000000000000e+02
1.110000000000000000e+02
3.960000000000000000e+02
3.580000000000000000e+02
-1.580000000000000000e+02
-5.690000000000000000e+02
-4.240000000000000000e+02
-2.130000000000000000e+02
-2.390000000000000000e+02
-2.180000000000000000e+02
-1.490000000000000000e+02
-1.870000000000000000e+02
-2.080000000000000000e+02
-1.580000000000000000e+02
-1.540000000000000000e+02
-1.700000000000000000e+02
-1.370000000000000000e+02
-1.160000000000000000e+02
-1.160000000000000000e+02
-1.040000000000000000e+02
-9.000000000000000000e+01
-7.300000000000000000e+01
-5.900000000000000000e+01
-4.000000000000000000e+01
-9.000000000000000000e+00
1.100000000000000000e+01
3.300000000000000000e+01
6.400000000000000000e+01
9.200000000000000000e+01
1.160000000000000000e+02
1.200000000000000000e+02
1.230000000000000000e+02
1.160000000000000000e+02
8.300000000000000000e+01
4.900000000000000000e+01
0.000000000000000000e+00
-5.200000000000000000e+01
-9.400000000000000000e+01
-1.510000000000000000e+02
-1.990000000000000000e+02
-1.960000000000000000e+02
-1.800000000000000000e+02
-1.940000000000000000e+02
-2.270000000000000000e+02
-2.340000000000000000e+02
-2.250000000000000000e+02
-2.220000000000000000e+02
-2.110000000000000000e+02
-1.850000000000000000e+02
-1.870000000000000000e+02
-2.010000000000000000e+02
-1.890000000000000000e+02
-1.750000000000000000e+02
-1.770000000000000000e+02
-1.680000000000000000e+02
-1.490000000000000000e+02
-1.580000000000000000e+02
-1.660000000000000000e+02
-1.390000000000000000e+02
-1.230000000000000000e+02
-1.390000000000000000e+02
-1.420000000000000000e+02
-1.420000000000000000e+02
-1.660000000000000000e+02
-1.820000000000000000e+02
-1.960000000000000000e+02
-1.960000000000000000e+02
-1.870000000000000000e+02
-1.920000000000000000e+02
-1.870000000000000000e+02
-1.940000000000000000e+02
-2.270000000000000000e+02
-2.490000000000000000e+02
-2.750000000000000000e+02
-2.840000000000000000e+02
-2.600000000000000000e+02
-2.580000000000000000e+02
-2.530000000000000000e+02
-2.270000000000000000e+02
-2.250000000000000000e+02
-2.490000000000000000e+02
-2.700000000000000000e+02
-2.220000000000000000e+02
-2.100000000000000000e+01
2.820000000000000000e+02
3.340000000000000000e+02
-1.160000000000000000e+02
-5.690000000000000000e+02
-4.910000000000000000e+02
-2.370000000000000000e+02
-2.080000000000000000e+02
-2.220000000000000000e+02
-1.770000000000000000e+02
-1.610000000000000000e+02
-1.630000000000000000e+02
-1.420000000000000000e+02
-1.440000000000000000e+02
-1.610000000000000000e+02
-1.470000000000000000e+02
-1.320000000000000000e+02
-1.280000000000000000e+02
-1.160000000000000000e+02
-9.400000000000000000e+01
-7.300000000000000000e+01
-7.100000000000000000e+01
-4.500000000000000000e+01
-9.000000000000000000e+00
2.000000000000000000e+00
2.100000000000000000e+01
5.200000000000000000e+01
7.500000000000000000e+01
9.900000000000000000e+01
1.020000000000000000e+02
1.180000000000000000e+02
1.490000000000000000e+02
1.370000000000000000e+02
9.400000000000000000e+01
4.700000000000000000e+01
2.000000000000000000e+00
-4.200000000000000000e+01
-9.900000000000000000e+01
